loop,time,pressure
0,0.10199999809265137,291
1,2.4746530055999756,289
2,3.478412628173828,291
5,6.483592987060547,289
6,7.4882142543792725,290
7,8.490637063980103,289
8,9.49428939819336,288
9,10.499019622802734,289
10,11.501405000686646,290
12,13.505818843841553,290
13,14.508202314376831,290
14,15.511380910873413,288
15,16.51487636566162,298
16,17.5178701877594,292
19,20.523365259170532,290
20,21.525986194610596,91
21,22.527928590774536,71
22,23.530938386917114,0
24,25.535785913467407,288
25,26.540233373641968,286
26,27.54405975341797,287
27,28.546369314193726,82
28,29.55542778968811,275
29,30.558051109313965,286
30,31.560636043548584,258
31,32.56343150138855,288
32,33.56600761413574,289
33,34.568625688552856,286
35,36.5734326839447,283
36,37.576165437698364,283
37,38.57918405532837,282
38,39.581504583358765,281
41,42.587433099746704,283
42,43.59053826332092,81
43,44.593523025512695,81
44,45.59674382209778,1
45,46.59861731529236,1
47,48.602315187454224,279
48,49.605425119400024,282
49,50.608569860458374,278
50,51.61157274246216,85
51,52.6146936416626,80
52,53.617008447647095,281
53,54.62004208564758,280
54,55.62327194213867,279
55,56.62587118148804,279
56,57.62862706184387,278
57,58.631107330322266,81
58,59.63399648666382,280
59,60.63670110702515,277
60,61.64021682739258,280
61,62.64160656929016,280
62,63.64603877067566,277
63,64.64921116828918,278
64,65.6518907546997,277
65,66.65507888793945,79
66,67.65766882896423,277
67,68.66050171852112,277
68,69.66394901275635,278
69,70.666907787323,278
70,71.66982054710388,276
71,72.67218780517578,278
72,73.6747932434082,77
73,74.67709922790527,275
74,75.67982053756714,278
75,76.68272924423218,275
76,77.68504071235657,280
77,78.6875913143158,274
78,79.6912591457367,280
79,80.69535326957703,274
80,81.69770932197571,276
81,82.69963645935059,274
82,83.70194339752197,275
83,84.70398235321045,273
84,85.70684218406677,275
85,86.70932507514954,273
86,87.71173524856567,275
87,88.71491813659668,277
88,89.71800255775452,272
89,90.72071099281311,282
90,91.723886013031,272
91,92.72617101669312,273
92,93.72826743125916,276
93,94.7300660610199,272
94,95.73308324813843,271
95,96.73630023002625,273
96,97.7388243675232,271
97,98.74117088317871,273
98,99.74416422843933,271
99,100.74722242355347,272
100,101.74962711334229,271
101,102.75256967544556,271
102,103.75477051734924,272
103,104.7567765712738,269
104,105.75933194160461,272
105,106.76221632957458,274
106,107.76585412025452,269
107,108.76886510848999,269
108,109.77183747291565,266
109,110.77491569519043,269
110,111.77730989456177,268
111,112.78009104728699,267
112,113.78288292884827,269
113,114.78561806678772,269
114,115.78883695602417,267
115,116.79250311851501,274
116,117.79587006568909,266
117,118.79896283149719,267
118,119.80150651931763,266
119,120.80451226234436,269
120,121.80882859230042,266
121,122.81230092048645,267
122,123.81607103347778,266
123,124.81953167915344,264
124,125.82129216194153,260
125,126.82382249832153,268
126,127.82667231559753,265
127,128.82901000976562,264
128,129.8320116996765,264
129,130.83471655845642,265
130,131.83824753761292,273
131,132.84113717079163,263
132,133.84373998641968,264
133,134.84576416015625,263
134,135.84873747825623,263
135,136.85091638565063,260
136,137.85306644439697,264
137,138.85478329658508,260
138,139.8573772907257,262
139,140.86057448387146,265
140,141.86417174339294,265
141,142.8659245967865,263
142,143.8678960800171,263
143,144.87194108963013,264
144,145.87482595443726,262
145,146.87778663635254,262
146,147.8807737827301,262
147,148.88409805297852,262
148,149.8871557712555,267
149,150.88910388946533,262
150,151.8917272090912,260
151,152.8939974308014,260
152,153.8962597846985,260
153,154.8984522819519,262
154,155.9006552696228,262
155,156.90364789962769,261
156,157.90885710716248,261
157,158.91244530677795,261
158,159.91544938087463,261
159,160.91844201087952,263
160,161.92123556137085,268
161,162.92399072647095,266
162,163.92701196670532,261
163,164.92971444129944,260
164,165.93237137794495,259
165,166.9353220462799,258
166,167.93801045417786,260
167,168.94015860557556,264
168,169.94296717643738,258
169,170.944922208786,260
170,171.94781398773193,257
171,172.9497468471527,258
172,173.9518837928772,260
173,174.95434188842773,262
174,175.95673394203186,254
175,176.95969820022583,257
176,177.9622449874878,257
177,178.9654679298401,256
178,179.96848011016846,256
179,180.97177481651306,256
180,181.97403478622437,256
181,182.9760024547577,256
182,183.978755235672,256
183,184.9816255569458,255
184,185.98420310020447,255
185,186.98620986938477,255
186,187.9897222518921,255
187,188.99261689186096,255
188,189.9957196712494,254
189,190.99776244163513,254
190,192.00019073486328,257
191,193.0032787322998,256
192,194.00664162635803,264
193,195.0089647769928,255
194,196.01221680641174,255
195,197.01514887809753,252
196,198.0176179409027,254
197,199.0199146270752,252
198,200.02245116233826,253
199,201.02464699745178,252
200,202.02641820907593,252
201,203.02994656562805,251
202,204.03246188163757,251
203,205.03590154647827,250
204,206.03889918327332,251
205,207.0417516231537,251
206,208.04446363449097,252
207,209.0473439693451,250
208,210.04992198944092,253
209,211.05364632606506,250
210,212.05645871162415,252
211,213.05886507034302,250
212,214.06198024749756,251
213,215.06436252593994,249
214,216.06737089157104,251
215,217.07020330429077,249
216,218.07286286354065,251
217,219.076171875,249
218,220.07888340950012,248
219,221.08130288124084,245
220,222.08305072784424,252
221,223.08502888679504,250
222,224.08830761909485,253
223,225.09133768081665,249
224,226.0939393043518,249
225,227.09668350219727,242
226,228.0992591381073,244
227,229.10281372070312,256
228,230.1059172153473,248
229,231.10889673233032,249
230,232.1114661693573,247
231,233.114577293396,248
232,234.11620354652405,247
233,235.11956548690796,247
234,236.1225781440735,246
235,237.12462043762207,245
236,238.12660026550293,246
237,239.12984108924866,246
238,240.1326024532318,247
239,241.13493847846985,246
240,242.13834643363953,245
241,243.1406946182251,244
242,244.143896818161,248
243,245.1471767425537,244
244,246.15022683143616,244
245,247.15326523780823,245
246,248.1566412448883,244
247,249.1603560447693,247
248,250.16332268714905,246
249,251.16597032546997,244
250,252.16888308525085,243
251,253.17089343070984,243
252,254.17364144325256,244
253,255.17580199241638,246
254,256.1789267063141,247
255,257.1821677684784,244
256,258.1853051185608,245
257,259.18808126449585,244
258,260.1910774707794,241
259,261.19373631477356,236
260,262.1959948539734,244
261,263.1990075111389,241
262,264.20129108428955,242
263,265.2040419578552,242
264,266.20642471313477,241
265,267.2089931964874,242
266,268.21203565597534,243
267,269.2147207260132,243
268,270.2178349494934,240
269,271.2208688259125,242
270,272.22277331352234,235
271,273.2262005805969,241
272,274.2284483909607,241
273,275.2308461666107,240
274,276.23337507247925,240
275,277.236629486084,240
276,278.23868441581726,241
277,279.2409551143646,242
278,280.2441382408142,239
279,281.24761152267456,239
280,282.25061774253845,240
281,283.25398564338684,240
282,284.25684428215027,240
283,285.2603266239166,240
284,286.26289558410645,241
285,287.26526141166687,238
286,288.26849126815796,242
287,289.2715983390808,238
288,290.27488255500793,239
289,291.27874064445496,239
290,292.28208780288696,239
291,293.2839779853821,240
292,294.28634786605835,238
293,295.28898096084595,238
294,296.291610956192,237
295,297.2948787212372,237
296,298.29890871047974,234
297,299.30245637893677,238
298,300.3056130409241,240
299,301.3099253177643,237
300,302.3122534751892,237
301,303.3151500225067,239
302,304.3180034160614,235
303,305.3269593715668,236
304,306.32877135276794,238
305,307.3318166732788,237
306,308.33528661727905,235
307,309.33757281303406,234
308,310.340624332428,229
309,311.3431439399719,235
310,312.3461103439331,235
311,313.3489055633545,234
312,314.3518407344818,237
313,315.354373216629,234
314,316.35735034942627,234
315,317.3598165512085,234
316,318.3626356124878,230
317,319.36535906791687,233
318,320.36892557144165,234
319,321.3717885017395,235
320,322.3743782043457,234
321,323.3774223327637,234
322,324.38010716438293,232
323,325.3832120895386,228
324,326.3862600326538,234
325,327.38917565345764,232
326,328.39183950424194,233
327,329.3954350948334,233
328,330.39866638183594,232
329,331.40225100517273,232
330,332.4049561023712,234
331,333.4075355529785,231
332,334.41024804115295,232
333,335.41291522979736,232
334,336.41596126556396,231
335,337.41956853866577,230
336,338.42169976234436,232
337,339.4247763156891,231
338,340.4273679256439,232
339,341.4300003051758,229
340,342.43291568756104,233
341,343.43596839904785,229
342,344.43887066841125,230
343,345.4408872127533,231
344,346.44289994239807,232
345,347.4450032711029,229
346,348.44794940948486,231
347,349.4495279788971,222
348,350.4521675109863,230
349,351.4554216861725,228
350,352.4592113494873,222
351,353.462087392807,229
352,354.46513319015503,229
353,355.46760153770447,231
354,356.47004413604736,229
355,357.4728810787201,228
356,358.47564363479614,228
357,359.478120803833,228
358,360.4817068576813,230
359,361.48504972457886,228
360,362.48731803894043,229
361,363.4907765388489,223
362,364.4932339191437,226
363,365.49639654159546,229
364,366.4986710548401,232
365,367.50111651420593,227
366,368.50301027297974,228
367,369.5068030357361,227
368,370.51007437705994,226
369,371.51316475868225,228
370,372.51632356643677,226
371,373.5194282531738,226
372,374.5222420692444,228
373,375.52564907073975,226
374,376.5289478302002,226
375,377.531631231308,229
376,378.53464365005493,229
377,379.53906059265137,228
378,380.5417113304138,228
379,381.54413771629333,227
380,382.5465929508209,226
381,383.5497272014618,228
382,384.55241775512695,228
383,385.5554814338684,229
384,386.5583622455597,228
385,387.5609874725342,227
386,388.565536737442,230
387,389.5684461593628,223
388,390.5710291862488,228
389,391.57408118247986,228
390,392.57680892944336,227
391,393.5794196128845,226
392,394.5841906070709,226
393,395.58698630332947,226
394,396.58903527259827,226
395,397.59236907958984,227
396,398.5951316356659,226
397,399.5977747440338,227
398,400.6011688709259,230
399,401.60456371307373,229
400,402.60814452171326,227
401,403.6105511188507,225
402,404.61353397369385,227
403,405.6161439418793,228
404,406.6197853088379,229
405,407.6227447986603,225
406,408.6252462863922,211
407,409.6276800632477,217
408,410.6334009170532,223
409,411.6366283893585,216
410,412.64009737968445,218
411,413.6426317691803,216
412,414.6458432674408,218
413,415.64818572998047,216
414,416.6502466201782,218
415,417.6531982421875,217
416,418.65603590011597,214
417,419.6582715511322,216
418,420.6605975627899,217
419,421.6628830432892,215
420,422.6653940677643,214
421,423.6681571006775,223
422,424.6710858345032,214
423,425.6736171245575,225
424,426.6763961315155,206
425,427.67932057380676,217
426,428.6819820404053,217
427,429.6843173503876,214
428,430.6862995624542,210
429,431.68845772743225,214
430,432.6923146247864,211
431,433.69504475593567,214
432,434.69805431365967,212
433,435.7006335258484,211
434,436.70373463630676,212
435,437.70634388923645,207
436,438.7085826396942,208
437,439.7109055519104,208
438,440.7136912345886,206
439,441.71589517593384,206
440,442.71830534935,207
441,443.72115111351013,208
442,444.7249207496643,206
443,445.72702860832214,203
444,446.7299132347107,204
445,447.73261642456055,204
446,448.73832750320435,202
447,449.7405152320862,201
448,450.74338817596436,200
449,451.7458510398865,200
450,452.7483859062195,201
451,453.75146770477295,199
452,454.75325894355774,199
453,455.7559449672699,200
454,456.7615432739258,199
455,457.7639129161835,199
456,458.7666006088257,197
457,459.76962208747864,198
458,460.7721884250641,198
459,461.77429723739624,197
460,462.7766664028168,195
461,463.7831361293793,196
462,464.7868549823761,195
463,465.7894563674927,197
464,466.79221177101135,192
465,467.7957532405853,195
466,468.79859590530396,194
467,469.80223274230957,192
468,470.8044810295105,190
469,471.80684876441956,192
470,472.8093638420105,189
471,473.8125982284546,191
472,474.81639885902405,187
473,475.819219827652,188
474,476.8223066329956,189
475,477.82514548301697,190
476,478.8269100189209,187
477,479.8293266296387,187
478,480.83184361457825,184
479,481.8348846435547,187
480,482.83760809898376,187
481,483.84038853645325,187
482,484.84297251701355,186
483,485.8458034992218,184
484,486.8490731716156,186
485,487.8514792919159,186
486,488.85420179367065,181
487,489.85806345939636,184
488,490.86080288887024,183
489,491.8640134334564,181
490,492.8669195175171,182
491,493.86895847320557,180
492,494.87239813804626,181
493,495.87462854385376,180
494,496.8774938583374,181
495,497.88061809539795,179
496,498.88327503204346,177
497,499.88634419441223,180
498,500.88918018341064,178
499,501.89165234565735,176
500,502.8943295478821,175
501,503.8973181247711,175
502,504.9009771347046,176
503,505.9033284187317,175
504,506.9053044319153,173
505,507.90880131721497,175
506,508.91120314598083,175
507,509.9133269786835,172
508,510.9167811870575,173
509,511.9183883666992,170
510,512.9210779666901,172
511,513.9235858917236,174
512,514.926664352417,169
513,515.9298508167267,169
514,516.9323773384094,170
515,517.9344069957733,170
516,518.9370918273926,167
517,519.9397237300873,169
518,520.9427742958069,167
519,521.9448084831238,166
520,522.9469926357269,166
521,523.9498751163483,165
522,524.9532375335693,167
523,525.9561097621918,165
524,526.9587783813477,165
525,527.9622316360474,165
526,528.9648678302765,162
527,529.9673750400543,164
528,530.9703831672668,162
529,531.9730150699615,165
530,532.9754953384399,162
531,533.9772522449493,161
532,534.980085849762,161
533,535.9835526943207,161
534,536.9854526519775,160
535,537.9888246059418,160
536,538.991623878479,159
537,539.9943926334381,159
538,540.9971997737885,157
539,541.9990150928497,158
540,543.0010948181152,156
541,544.0042352676392,157
542,545.0068261623383,159
543,546.0100305080414,154
544,547.0131545066833,154
545,548.015412569046,154
546,549.0176463127136,155
547,550.0201065540314,154
548,551.0220882892609,153
549,552.0240004062653,154
550,553.0262799263,155
551,554.0297014713287,152
552,555.0321578979492,150
553,556.0346193313599,149
554,557.0372712612152,150
555,558.0398099422455,150
556,559.0423200130463,149
557,560.0460031032562,151
558,561.0498955249786,148
559,562.0523457527161,148
560,563.0562098026276,148
561,564.0608687400818,148
562,565.0638744831085,149
563,566.0672845840454,147
564,567.0702819824219,146
565,568.073968410492,145
566,569.0775291919708,146
567,570.0794155597687,147
568,571.082802772522,147
569,572.0860345363617,145
570,573.0902767181396,144
571,574.0930986404419,142
572,575.0954322814941,142
573,576.0977857112885,141
574,577.0998075008392,142
575,578.101753950119,140
576,579.1042950153351,141
577,580.1065692901611,140
578,581.1092610359192,141
579,582.1112139225006,138
580,583.1146125793457,138
581,584.1167984008789,137
582,585.1199502944946,136
583,586.1233577728271,137
584,587.1266965866089,138
585,588.129054069519,137
586,589.1319482326508,137
587,590.1350526809692,138
588,591.1375350952148,137
589,592.1406664848328,135
590,593.143413066864,135
591,594.1464314460754,133
592,595.1496827602386,132
593,596.152745962143,132
594,597.1545743942261,131
595,598.1569273471832,130
596,599.1598579883575,130
597,600.1623606681824,130
598,601.1647534370422,129
599,602.1679236888885,129
600,603.1709809303284,127
601,604.1738154888153,128
602,605.1760840415955,126
603,606.179102897644,127
604,607.1814134120941,125
605,608.1842629909515,127
606,609.1868596076965,127
607,610.1889867782593,125
608,611.1921665668488,125
609,612.1945707798004,123
610,613.197203874588,122
611,614.1991806030273,125
612,615.2017896175385,122
613,616.2043523788452,122
614,617.2066082954407,122
615,618.2088210582733,119
616,619.2114236354828,120
617,620.2139382362366,119
618,621.2158761024475,117
619,622.218382358551,114
620,623.2202851772308,113
621,624.2233743667603,113
622,625.2252066135406,111
623,626.2277429103851,112
624,627.2307577133179,108
625,628.2337536811829,107
626,629.2365875244141,106
627,630.2396750450134,106
628,631.2421531677246,105
629,632.2471344470978,106
630,633.2501344680786,105
631,634.2531101703644,106
632,635.2551419734955,105
633,636.2570369243622,105
634,637.2598583698273,105
635,638.2629454135895,103
636,639.2666275501251,103
637,640.2692496776581,103
638,641.2717363834381,101
639,642.2743394374847,101
640,643.2769660949707,101
641,644.2803790569305,102
642,645.2843267917633,101
643,646.2866232395172,101
644,647.2890138626099,101
645,648.2916288375854,98
646,649.2944047451019,100
647,650.296489238739,99
648,651.299712896347,96
649,652.3026416301727,98
650,653.3051221370697,94
651,654.3078691959381,96
652,655.310290813446,96
653,656.313009262085,95
654,657.3162188529968,94
655,658.3187475204468,94
656,659.3207137584686,96
657,660.3229048252106,91
658,661.3251900672913,93
659,662.3272099494934,90
660,663.3296868801117,91
661,664.3331339359283,92
662,665.3362712860107,89
663,666.340083360672,90
664,667.3431286811829,89
665,668.346179485321,89
666,669.3490772247314,87
667,670.3526198863983,88
668,671.3556280136108,88
669,672.3584752082825,88
670,673.3611934185028,87
671,674.3633759021759,86
672,675.3658931255341,87
673,676.3680772781372,86
674,677.3697345256805,83
675,678.3728065490723,85
676,679.3757662773132,83
677,680.3786542415619,85
678,681.3809468746185,82
679,682.3847861289978,85
680,683.3888001441956,82
681,684.3914511203766,82
682,685.3948137760162,81
683,686.3981783390045,81
684,687.4002404212952,78
685,688.403785943985,80
686,689.4062120914459,80
687,690.408757686615,78
688,691.4116425514221,77
689,692.4146981239319,79
690,693.4168050289154,76
691,694.4197046756744,80
692,695.4231116771698,76
693,696.4262385368347,77
694,697.4290051460266,76
695,698.431177854538,75
696,699.4351804256439,76
697,700.4383230209351,74
698,701.4408535957336,75
699,702.443840265274,72
700,703.4461905956268,73
701,704.4487228393555,73
702,705.4513065814972,71
703,706.4532916545868,72
704,707.4563295841217,71
705,708.4585609436035,72
706,709.4608137607574,70
707,710.4628558158875,70
708,711.4658255577087,70
709,712.4679732322693,69
710,713.471302986145,70
711,714.4739117622375,68
712,715.4764790534973,69
713,716.4797723293304,67
714,717.4828722476959,66
715,718.4849944114685,66
716,719.4887053966522,65
717,720.4910054206848,66
718,721.4934628009796,65
719,722.4965536594391,64
720,723.499231338501,66
721,724.5013246536255,64
722,725.5044474601746,61
723,726.5065069198608,63
724,727.5088670253754,62
725,728.5131928920746,59
726,729.5147354602814,62
727,730.5171089172363,62
728,731.5190563201904,60
729,732.5214176177979,60
730,733.5236392021179,59
731,734.5259759426117,58
732,735.5291881561279,60
733,736.5341529846191,58
734,737.5372149944305,56
735,738.5413382053375,57
736,739.5439658164978,58
737,740.5460336208344,56
738,741.5492730140686,55
739,742.5525975227356,55
740,743.5554780960083,57
741,744.5577323436737,54
742,745.5607712268829,53
743,746.5632576942444,54
744,747.5663833618164,55
745,748.5689780712128,54
746,749.5708072185516,54
747,750.5736944675446,54
748,751.5760610103607,53
749,752.5790605545044,54
750,753.581380367279,53
