loop,time,pressure,mass
0,0.10042262077331543,673,9.55
1,2.7685141563415527,674,9.549
2,3.885530710220337,673,9.548
3,5.021551132202148,676,9.548
4,6.200543403625488,676,9.547
5,7.403455018997192,673,9.546
6,8.533491134643555,672,9.546
7,9.684496641159058,672,9.546
8,10.825528383255005,673,9.545
9,11.983484983444214,673,9.545
10,13.125345706939697,673,9.544
11,14.264445781707764,673,9.544
12,15.451462507247925,669,9.543
13,16.583479642868042,671,9.543
14,17.740478992462158,674,9.542
15,18.863431692123413,673,9.541
16,20.002432346343994,672,9.54
17,21.15245819091797,672,9.54
18,22.32040047645569,672,9.539
19,23.44834542274475,673,9.538
20,24.66030764579773,672,9.538
21,25.80432629585266,670,9.538
22,26.939325094223022,670,9.537
23,28.104315519332886,672,9.536
24,29.295289278030396,673,9.535
25,30.46931791305542,672,9.535
26,31.619276523590088,672,9.535
27,32.75329303741455,671,9.534
28,33.939279556274414,671,9.533
29,35.07826256752014,672,9.532
30,36.27421808242798,668,9.532
31,37.42023158073425,671,9.531
32,38.54030227661133,672,9.531
33,39.72225904464722,672,9.531
34,40.86525368690491,670,9.529
35,42.00021934509277,670,9.529
36,43.13717246055603,0,9.529
37,44.31824016571045,671,9.528
38,45.4623281955719,670,9.527
39,46.59833812713623,668,9.526
40,47.79931974411011,670,9.526
41,48.97530913352966,669,9.526
42,50.117307901382446,669,9.524
43,51.317272663116455,669,9.524
44,52.45329451560974,671,9.524
45,53.610310316085815,672,9.523
46,54.80031108856201,671,9.522
47,55.95127606391907,668,9.521
48,57.07627296447754,669,9.521
49,58.241225481033325,669,9.52
50,59.386311292648315,670,9.519
51,60.583195209503174,670,9.519
52,61.728214263916016,669,9.519
53,62.85917282104492,668,9.518
54,64.01224040985107,669,9.517
55,65.13522052764893,669,9.516
56,66.2992308139801,669,9.515
57,67.45525407791138,669,9.515
58,68.58304071426392,668,9.515
59,69.72418475151062,669,9.514
60,70.85816669464111,669,9.513
61,71.97504425048828,666,9.513
62,73.10120701789856,669,9.512
63,74.25116109848022,669,9.511
64,75.37721300125122,668,9.511
65,76.55920052528381,667,9.51
66,77.68705439567566,667,9.51
67,78.82710409164429,667,9.51
68,79.98712992668152,668,9.509
69,81.14419078826904,668,9.509
70,82.28292751312256,667,9.508
71,83.45203471183777,671,9.507
72,84.57518005371094,669,9.507
73,85.73600125312805,667,9.506
74,86.85105109214783,666,9.505
75,88.042897939682,667,9.504
76,89.1899356842041,668,9.504
77,90.36096739768982,667,9.504
78,91.50784516334534,667,9.501
79,92.72678136825562,667,9.502
80,93.87299489974976,668,9.502
81,95.0280659198761,666,9.501
82,96.15901613235474,668,9.501
83,97.30783438682556,666,9.5
84,98.44206762313843,667,9.499
85,99.62502646446228,667,9.499
86,100.76792287826538,666,9.498
87,101.9698646068573,666,9.497
88,103.15899181365967,666,9.496
89,104.29696440696716,667,9.496
90,105.48404097557068,660,9.495
91,106.62600374221802,663,9.495
92,107.76886987686157,667,9.494
93,108.94079875946045,664,9.494
94,110.12194466590881,665,9.493
95,111.31174373626709,665,9.493
96,112.53198266029358,666,9.492
97,113.69589567184448,665,9.492
98,114.84091544151306,665,9.491
99,115.97385787963867,665,9.49
100,117.1009247303009,660,9.49
101,118.24990630149841,664,9.488
102,119.3899154663086,664,9.488
103,120.59883952140808,665,9.487
104,121.72877287864685,665,9.487
105,122.90268850326538,664,9.486
106,124.02475023269653,664,9.486
107,125.14487195014954,664,9.485
108,126.30783677101135,665,9.485
109,127.45183658599854,664,9.484
110,128.58280444145203,655,9.484
111,129.74186730384827,659,9.484
112,130.9397804737091,666,9.482
113,132.0778946876526,663,9.482
114,133.2739863395691,665,9.481
115,134.43384528160095,663,9.481
116,135.63386154174805,663,9.481
117,136.82269549369812,663,9.48
118,137.95876669883728,664,9.479
119,139.09856057167053,662,9.478
120,140.2265636920929,661,9.477
121,141.38862085342407,663,9.477
122,142.50579977035522,664,9.477
123,143.64980173110962,664,9.476
124,144.83781027793884,663,9.475
125,146.00077176094055,662,9.475
126,147.14876246452332,664,9.474
127,148.29053807258606,663,9.473
128,149.43066096305847,662,9.472
129,150.56880283355713,662,9.472
130,151.70673274993896,662,9.472
131,152.82662391662598,662,9.471
132,154.0397243499756,662,9.471
133,155.16978430747986,662,9.47
134,156.30969381332397,662,9.47
135,157.50267672538757,662,9.469
136,158.6417474746704,659,9.468
137,159.7966866493225,663,9.468
138,160.92179417610168,662,9.467
139,162.05871534347534,663,9.467
140,163.18769145011902,661,9.466
141,164.3417398929596,661,9.466
142,165.54856729507446,660,9.465
143,166.68677282333374,660,9.464
144,167.84871339797974,661,9.464
145,168.9766960144043,661,9.463
146,170.10769701004028,661,9.462
147,171.28168177604675,661,9.461
148,172.4126694202423,661,9.461
149,173.57569193840027,659,9.46
150,174.70469117164612,661,9.46
151,175.84667944908142,657,9.46
152,177.05067467689514,659,9.46
153,178.19269609451294,658,9.459
154,179.3944754600525,660,9.458
155,180.53279948234558,659,9.457
156,181.67055320739746,659,9.456
157,182.80059218406677,659,9.456
158,183.94466876983643,660,9.456
159,185.09959268569946,660,9.456
160,186.22760677337646,660,9.455
161,187.3676552772522,659,9.454
162,188.49760007858276,659,9.453
163,189.63547134399414,660,9.453
164,190.84646725654602,659,9.453
165,192.00162601470947,659,9.451
166,193.1566321849823,658,9.451
167,194.33956098556519,660,9.451
168,195.49957585334778,659,9.45
169,196.64938378334045,661,9.449
170,197.76158809661865,659,9.449
171,198.90556025505066,657,9.448
172,200.06354975700378,658,9.448
173,201.20855569839478,658,9.447
174,202.3525149822235,658,9.446
175,203.47656226158142,658,9.445
176,204.65935254096985,657,9.445
177,205.80159616470337,658,9.445
178,206.92751383781433,657,9.445
179,208.12753820419312,658,9.444
180,209.27650356292725,657,9.443
181,210.41644620895386,658,9.442
182,211.57541871070862,656,9.442
183,212.70944786071777,658,9.441
184,213.86346340179443,655,9.441
185,215.01247119903564,657,9.44
186,216.13746452331543,656,9.44
187,217.34342074394226,658,9.439
188,218.46043062210083,657,9.438
189,219.6073718070984,657,9.438
190,220.7344455718994,657,9.437
191,221.90642380714417,658,9.437
192,223.04240465164185,657,9.436
193,224.15940952301025,657,9.435
194,225.29915976524353,657,9.435
195,226.4253647327423,656,9.435
196,227.6353874206543,657,9.434
197,228.79135918617249,656,9.433
198,229.98040413856506,656,9.433
199,231.13738250732422,656,9.432
200,232.3153429031372,659,9.431
201,233.46440482139587,657,9.431
202,234.59126114845276,656,9.43
203,235.7173137664795,654,9.43
204,236.95135951042175,655,9.43
205,238.08434438705444,655,9.429
206,239.2742931842804,655,9.428
207,240.42128467559814,656,9.427
208,241.6052622795105,655,9.427
209,242.75124549865723,655,9.427
210,243.8833258152008,655,9.426
211,245.02032136917114,655,9.425
212,246.16132879257202,656,9.425
213,247.32131338119507,655,9.424
214,248.5162477493286,657,9.423
215,249.6412491798401,653,9.423
216,250.79618573188782,655,9.422
217,251.9362711906433,656,9.422
218,253.11726665496826,655,9.421
219,254.26924347877502,654,9.421
220,255.45223546028137,655,9.42
221,256.58522367477417,655,9.419
222,257.71320033073425,654,9.419
223,258.85224747657776,655,9.418
224,259.9991250038147,654,9.418
225,261.14818382263184,654,9.417
226,262.30523347854614,653,9.417
227,263.43321561813354,654,9.417
228,264.6511769294739,654,9.415
229,265.79119753837585,651,9.414
230,266.9481656551361,658,9.414
231,268.11421060562134,655,9.414
232,269.26613879203796,653,9.413
233,270.44918417930603,653,9.412
234,271.57915782928467,653,9.412
235,272.7941219806671,653,9.411
236,273.9411597251892,653,9.411
237,275.0651340484619,652,9.41
238,276.2044641971588,652,9.41
239,277.33820104599,654,9.409
240,278.4791648387909,653,9.409
241,279.61314868927,654,9.408
242,280.7550973892212,653,9.407
243,281.89313554763794,653,9.406
244,283.03121185302734,653,9.406
245,284.18011498451233,652,9.406
246,285.33700251579285,652,9.405
247,286.48099756240845,654,9.404
248,287.67595624923706,653,9.404
249,288.9069676399231,650,9.403
250,290.09898686408997,653,9.403
251,291.282035112381,652,9.403
252,292.49302220344543,652,9.402
253,293.63295912742615,651,9.401
254,294.7879090309143,650,9.4
255,295.9379463195801,652,9.4
256,297.07795095443726,652,9.399
257,298.2020025253296,652,9.398
258,299.3400363922119,653,9.398
259,300.45991945266724,652,9.398
260,301.61792945861816,652,9.398
261,302.7718734741211,651,9.397
262,303.89084458351135,651,9.396
263,305.04089760780334,651,9.396
264,306.198872089386,650,9.395
265,307.39789962768555,651,9.395
266,308.5599057674408,653,9.394
267,309.6748151779175,649,9.393
268,310.8268938064575,651,9.392
269,311.9798471927643,646,9.392
270,313.1218526363373,644,9.392
271,314.2638101577759,652,9.392
272,315.46085143089294,648,9.39
273,316.60096621513367,650,9.389
274,317.75096011161804,651,9.389
275,318.87189841270447,648,9.388
276,320.01490449905396,649,9.388
277,321.17384243011475,651,9.388
278,322.3179361820221,650,9.387
279,323.46780705451965,649,9.387
280,324.61178398132324,650,9.386
281,325.79580307006836,650,9.385
282,326.96886014938354,649,9.385
283,328.1779148578644,649,9.384
284,329.37589859962463,649,9.384
285,330.50483989715576,648,9.383
286,331.6868772506714,650,9.382
287,332.82482409477234,651,9.382
288,333.94882678985596,650,9.381
289,335.0768504142761,649,9.381
290,336.29176807403564,650,9.38
291,337.4817409515381,651,9.379
292,338.61616921424866,645,9.379
293,339.75984144210815,647,9.379
294,340.98084926605225,647,9.378
295,342.1048324108124,649,9.377
296,343.24287390708923,648,9.377
297,344.45174264907837,648,9.376
298,345.646821975708,647,9.375
299,346.84480595588684,648,9.375
300,348.0246641635895,647,9.375
301,349.16865825653076,648,9.374
302,350.2937819957733,648,9.373
303,351.4466950893402,647,9.372
304,352.57574915885925,647,9.372
305,353.7217674255371,648,9.372
306,354.90975427627563,647,9.371
307,356.0566999912262,647,9.371
308,357.18475008010864,648,9.37
309,358.35880303382874,650,9.37
310,359.48376989364624,645,9.369
311,360.68873047828674,648,9.368
312,361.8277575969696,645,9.367
313,362.97868633270264,645,9.367
314,364.17684984207153,647,9.367
315,365.3486292362213,648,9.366
316,366.48570370674133,647,9.365
317,367.6097021102905,648,9.364
318,368.74769616127014,646,9.364
319,369.89668345451355,646,9.364
320,371.0516254901886,647,9.364
321,372.1827144622803,646,9.363
322,373.32566595077515,646,9.362
323,374.44963026046753,647,9.361
324,375.5745213031769,647,9.361
325,376.71162581443787,646,9.361
326,377.9096426963806,646,9.36
327,379.04953241348267,646,9.359
328,380.19548535346985,645,9.358
329,381.37157249450684,645,9.358
330,382.49545907974243,646,9.358
331,383.6645715236664,645,9.357
332,384.80855536460876,644,9.357
333,386.0075318813324,645,9.356
334,387.1846134662628,645,9.355
335,388.3114559650421,644,9.355
336,389.51448583602905,646,9.354
337,390.6545035839081,648,9.353
338,391.7905333042145,642,9.352
339,392.96957206726074,645,9.352
340,394.1125762462616,645,9.352
341,395.2535846233368,643,9.351
342,396.4155411720276,645,9.351
343,397.62150835990906,644,9.35
344,398.7805473804474,644,9.349
345,399.9434928894043,644,9.349
346,401.0805323123932,644,9.349
347,402.2615222930908,643,9.348
348,403.4045035839081,644,9.347
349,404.54554176330566,644,9.347
350,405.68751430511475,645,9.346
351,406.8824996948242,644,9.346
352,408.0564911365509,644,9.345
353,409.21448373794556,644,9.345
354,410.35358357429504,643,9.344
355,411.5274441242218,644,9.343
356,412.69139409065247,645,9.343
357,413.8373951911926,643,9.342
358,415.01916885375977,641,9.342
359,416.18141531944275,642,9.341
360,417.3184094429016,641,9.34
361,418.4384524822235,644,9.34
362,419.5784561634064,644,9.34
363,420.7204294204712,643,9.34
364,421.86538195610046,643,9.338
365,422.99741888046265,643,9.337
366,424.1223871707916,643,9.337
367,425.2985563278198,641,9.336
368,426.455384016037,642,9.336
369,427.5963637828827,643,9.335
370,428.7563986778259,642,9.335
371,429.9052577018738,642,9.334
372,431.017263174057,643,9.334
373,432.1732792854309,641,9.332
374,433.35733437538147,641,9.332
375,434.54530930519104,642,9.332
376,435.6892776489258,641,9.332
377,436.8283038139343,641,9.331
378,437.9823422431946,641,9.331
379,439.1113030910492,641,9.33
380,440.2693316936493,642,9.329
381,441.4063057899475,642,9.329
382,442.5282897949219,641,9.328
383,443.726336479187,641,9.328
384,444.9061734676361,640,9.327
385,446.0491216182709,641,9.327
386,447.18617606163025,643,9.326
387,448.41920471191406,639,9.325
388,449.56528973579407,642,9.325
389,450.7092742919922,639,9.324
390,451.9052264690399,640,9.324
391,453.066232919693,640,9.323
392,454.2122299671173,640,9.322
393,455.42628240585327,641,9.322
394,456.55423760414124,641,9.321
395,457.706191778183,640,9.32
396,458.82518553733826,640,9.32
397,460.03625106811523,640,9.319
398,461.16622257232666,639,9.319
399,462.3334074020386,639,9.319
400,463.525173664093,639,9.319
401,464.6702287197113,640,9.318
402,465.8262212276459,639,9.317
403,466.98219990730286,640,9.316
404,468.12019658088684,640,9.315
405,469.2571806907654,639,9.315
406,470.4661719799042,639,9.314
407,471.6761403083801,639,9.313
408,472.82713198661804,639,9.313
409,473.9550540447235,638,9.313
410,475.10714864730835,640,9.313
411,476.24815607070923,640,9.312
412,477.39013290405273,640,9.311
413,478.5481381416321,638,9.311
414,479.6871404647827,638,9.31
415,480.82312297821045,636,9.309
416,481.963182926178,637,9.308
417,483.13411116600037,637,9.308
418,484.282110452652,641,9.308
419,485.444123506546,637,9.307
420,486.6341097354889,638,9.307
421,487.7640495300293,638,9.307
422,488.92409229278564,638,9.306
423,490.0660765171051,637,9.305
424,491.25606179237366,638,9.305
425,492.39406418800354,637,9.304
426,493.60513067245483,637,9.304
427,494.7460606098175,638,9.303
428,495.90305757522583,637,9.302
429,497.0760509967804,637,9.302
430,498.24104475975037,638,9.302
431,499.3980243206024,637,9.301
432,500.5420126914978,637,9.3
433,501.72204399108887,637,9.299
434,502.9300379753113,637,9.299
435,504.13797402381897,637,9.298
436,505.2989556789398,639,9.298
437,506.4420144557953,639,9.297
438,507.5829486846924,634,9.297
439,508.70198035240173,635,9.297
440,509.83699464797974,639,9.296
441,510.9929826259613,639,9.295
442,512.1159293651581,636,9.294
443,513.2509865760803,634,9.294
444,514.3919544219971,636,9.294
445,515.5239462852478,637,9.293
446,516.6789453029633,635,9.293
447,517.8099410533905,637,9.292
448,519.0139319896698,636,9.291
449,520.1748452186584,636,9.291
450,521.3119299411774,636,9.29
451,522.4508628845215,637,9.289
452,523.629878282547,635,9.289
453,524.7758617401123,636,9.288
454,525.9398500919342,636,9.288
455,527.1088554859161,635,9.288
456,528.2458961009979,635,9.287
457,529.3708736896515,635,9.286
458,530.5298452377319,635,9.286
459,531.6588628292084,634,9.286
460,532.8158831596375,634,9.285
461,533.9379584789276,634,9.283
462,535.0618393421173,634,9.283
463,536.2578661441803,634,9.283
464,537.4198138713837,635,9.282
465,538.6318371295929,635,9.281
466,539.8418574333191,634,9.281
467,540.970764875412,635,9.281
468,542.1208243370056,635,9.28
469,543.3117094039917,634,9.28
470,544.4477019309998,634,9.279
471,545.6076962947845,634,9.278
472,546.7457523345947,634,9.278
473,547.8727471828461,634,9.277
474,549.0137832164764,634,9.277
475,550.1791751384735,634,9.276
476,551.3377809524536,634,9.275
477,552.5087785720825,634,9.275
478,553.7187311649323,633,9.275
479,554.9296426773071,633,9.274
480,556.1127111911774,633,9.273
481,557.2497668266296,633,9.273
482,558.4577465057373,634,9.273
483,559.6006689071655,634,9.272
484,560.7567355632782,633,9.272
485,561.8966903686523,633,9.271
486,563.0627295970917,634,9.27
487,564.1816711425781,633,9.27
488,565.37570977211,632,9.269
489,566.5146977901459,633,9.269
490,567.6495954990387,632,9.268
491,568.8125343322754,632,9.268
492,569.9526553153992,633,9.267
493,571.095639705658,632,9.267
494,572.270521402359,632,9.266
495,573.3976495265961,632,9.266
496,574.5566318035126,632,9.265
497,575.7025578022003,632,9.265
498,576.8755986690521,634,9.264
499,578.0136027336121,631,9.263
500,579.1776301860809,631,9.262
501,580.2945189476013,632,9.262
502,581.501490354538,632,9.262
503,582.6445245742798,631,9.261
504,583.8155202865601,632,9.26
505,584.9594662189484,630,9.259
506,586.1134684085846,631,9.258
507,587.2715861797333,631,9.258
508,588.4104943275452,630,9.258
509,589.5394549369812,631,9.258
510,590.6964371204376,630,9.258
511,591.8374457359314,631,9.257
512,592.9954645633698,631,9.256
513,594.1685633659363,631,9.256
514,595.3794898986816,631,9.255
515,596.504522562027,631,9.255
516,597.629552602768,630,9.254
517,598.7614951133728,631,9.254
518,599.8995292186737,630,9.253
519,601.0434248447418,630,9.252
520,602.2355654239655,630,9.252
521,603.3445177078247,630,9.252
522,604.4824430942535,630,9.251
523,605.6183981895447,629,9.25
524,606.7584109306335,630,9.249
525,607.8973908424377,630,9.249
526,609.1013774871826,630,9.249
527,610.250449180603,629,9.249
528,611.3934564590454,629,9.248
529,612.56942486763,629,9.247
530,613.7644376754761,630,9.246
531,614.900408744812,630,9.246
532,616.0264413356781,629,9.246
533,617.1874570846558,630,9.245
534,618.3514487743378,629,9.244
535,619.5094258785248,629,9.244
536,620.6963806152344,630,9.244
537,621.9292902946472,629,9.243
538,623.0723121166229,628,9.242
539,624.203364610672,628,9.242
540,625.4224116802216,627,9.241
541,626.5963304042816,628,9.241
542,627.7213928699493,629,9.24
543,628.8384170532227,629,9.239
544,630.049233675003,628,9.238
545,631.21941614151,629,9.238
546,632.3784077167511,627,9.237
547,633.558381319046,628,9.237
548,634.7023689746857,629,9.237
549,635.8643579483032,626,9.236
550,636.9993674755096,628,9.236
551,638.1433234214783,629,9.236
552,639.2723367214203,628,9.235
553,640.4383609294891,627,9.234
554,641.6092939376831,628,9.234
555,642.7382802963257,626,9.234
556,643.8871929645538,627,9.233
557,645.0522112846375,627,9.232
558,646.1991641521454,627,9.231
559,647.344183921814,626,9.231
560,648.4643108844757,628,9.231
561,649.6012864112854,626,9.23
562,650.7402775287628,627,9.229
563,651.9232831001282,627,9.229
564,653.0672731399536,626,9.228
565,654.2001638412476,625,9.228
566,655.3481991291046,626,9.228
567,656.495142698288,625,9.227
568,657.6531462669373,627,9.226
569,658.8011982440948,627,9.226
570,659.939124584198,626,9.225
571,661.0921885967255,627,9.224
572,662.2281138896942,628,9.223
573,663.4052822589874,624,9.223
574,664.548171043396,624,9.223
575,665.6931600570679,625,9.223
576,666.8350968360901,627,9.222
577,668.0051963329315,626,9.221
578,669.1521849632263,623,9.22
579,670.3441309928894,627,9.22
580,671.516149520874,624,9.22
581,672.6441383361816,623,9.22
582,673.7991216182709,627,9.219
583,674.9291651248932,625,9.219
584,676.111209154129,627,9.218
585,677.243152141571,627,9.217
586,678.4291317462921,625,9.216
587,679.5651578903198,625,9.216
588,680.7390973567963,625,9.215
589,681.935133934021,625,9.215
590,683.1190965175629,626,9.214
591,684.2472281455994,625,9.214
592,685.3921127319336,625,9.213
593,686.5181086063385,625,9.212
594,687.6382219791412,625,9.212
595,688.7950975894928,625,9.212
596,689.9240872859955,624,9.212
597,691.0801093578339,625,9.211
598,692.2101035118103,625,9.21
599,693.3330366611481,624,9.209
600,694.4530568122864,624,9.209
601,695.5890698432922,624,9.209
602,696.7500846385956,624,9.208
603,697.8900270462036,624,9.207
604,699.0149581432343,625,9.207
605,700.1410143375397,623,9.207
606,701.2990446090698,624,9.206
607,702.4510545730591,624,9.205
608,703.5880262851715,623,9.205
609,704.7300109863281,625,9.204
610,705.8910384178162,623,9.204
611,707.0320007801056,624,9.204
612,708.200028181076,623,9.203
613,709.391969203949,623,9.202
614,710.5439796447754,623,9.202
615,711.7519781589508,623,9.201
616,712.9549353122711,623,9.2
617,714.1071929931641,622,9.199
618,715.3249599933624,624,9.199
619,716.4939239025116,622,9.199
620,717.6369593143463,621,9.198
621,718.7828147411346,621,9.198
622,719.9228739738464,623,9.197
