loop,time,pressure,mass
0,0.10024285316467285,235,2.586
1,1.234504222869873,236,2.586
2,2.3744988441467285,235,2.585
3,3.4984757900238037,236,2.584
4,4.615468978881836,236,2.584
5,5.7723388671875,236,2.584
6,6.896470546722412,235,2.584
7,8.033518552780151,237,2.583
8,9.172350645065308,235,2.583
9,10.323343753814697,234,2.582
10,11.448297262191772,236,2.582
11,12.585362672805786,234,2.582
12,13.723342180252075,234,2.581
13,14.903380632400513,235,2.581
14,16.042315006256104,234,2.58
15,17.16639471054077,234,2.58
16,18.3053195476532,234,2.579
17,19.514310359954834,233,2.579
18,20.64028000831604,235,2.579
19,21.79230499267578,234,2.578
20,22.92029857635498,235,2.578
21,24.070406913757324,236,2.577
22,25.208383321762085,233,2.577
23,26.401367664337158,234,2.577
24,27.553328275680542,235,2.576
25,28.67937684059143,234,2.576
26,29.80735445022583,234,2.575
27,30.977306842803955,235,2.575
28,32.114317655563354,233,2.575
29,33.24030303955078,234,2.574
30,34.38929986953735,233,2.574
31,35.51224899291992,232,2.574
33,37.64670920372009,233,2.573
34,38.831326723098755,233,2.572
35,39.99630689620972,233,2.572
36,41.172303199768066,233,2.572
37,42.3251953125,234,2.571
38,43.45427656173706,234,2.57
39,44.639307260513306,233,2.57
40,45.773273944854736,4,2.57
41,46.9112503528595,233,2.569
42,48.06129240989685,232,2.568
43,49.190258741378784,233,2.568
44,50.32797122001648,232,2.568
45,51.480252504348755,235,2.568
46,52.60222625732422,233,2.568
47,53.756380558013916,233,2.567
48,54.893351793289185,232,2.567
49,56.02136754989624,232,2.567
50,57.173340797424316,233,2.566
51,58.37836146354675,232,2.566
52,59.53837466239929,233,2.565
53,60.678356885910034,232,2.565
54,61.832377195358276,233,2.564
55,62.954349756240845,233,2.564
56,64.09018635749817,232,2.564
57,65.22733926773071,33,2.564
58,66.36928009986877,232,2.563
59,67.50936532020569,232,2.563
60,68.64733648300171,231,2.562
61,69.79928779602051,232,2.562
62,70.99022054672241,231,2.561
63,72.12727904319763,233,2.56
64,73.27125763893127,233,2.56
65,74.42223334312439,232,2.559
67,76.56072735786438,30,2.559
68,77.76221704483032,232,2.559
69,78.958172082901,232,2.558
70,80.14112830162048,230,2.558
71,81.26521897315979,232,2.558
72,82.40230965614319,231,2.557
73,83.59824013710022,231,2.557
74,84.79021787643433,230,2.556
75,85.92628192901611,230,2.555
76,87.06517720222473,231,2.555
77,88.21673440933228,230,2.555
78,89.35714268684387,230,2.555
79,90.54614567756653,231,2.554
80,91.73307299613953,231,2.554
81,92.86614727973938,232,2.554
82,94.01526808738708,231,2.554
83,95.13806748390198,230,2.553
84,96.30622577667236,232,2.552
85,97.4441168308258,230,2.552
86,98.56713676452637,231,2.552
87,99.70017337799072,231,2.551
88,100.8571949005127,232,2.55
89,101.99515080451965,229,2.55
90,103.21415996551514,231,2.549
91,104.38110327720642,230,2.549
92,105.5931830406189,230,2.549
93,106.73120760917664,229,2.549
94,107.87020707130432,230,2.548
95,109.01516270637512,231,2.548
96,110.20611810684204,230,2.548
97,111.35914516448975,230,2.547
98,112.48199439048767,230,2.546
99,113.65707492828369,229,2.546
100,114.85705304145813,230,2.546
101,115.99277758598328,229,2.546
102,117.11404418945312,229,2.545
103,118.25194001197815,229,2.545
104,119.4061827659607,230,2.544
105,120.53013110160828,229,2.544
106,121.6711196899414,230,2.544
107,122.80716228485107,230,2.544
108,123.93620491027832,228,2.543
109,125.0870771408081,228,2.543
110,126.21003890037537,229,2.542
111,127.34811854362488,228,2.541
112,128.5451385974884,229,2.541
113,129.75110840797424,229,2.541
114,130.88813042640686,228,2.541
117,134.02811121940613,28,2.539
118,135.16915321350098,229,2.539
119,136.2931182384491,225,2.538
120,137.44707489013672,229,2.538
121,138.56807255744934,229,2.538
122,139.70611953735352,229,2.537
123,140.87815308570862,229,2.537
124,142.04413151741028,229,2.536
125,143.1920506954193,229,2.535
126,144.36607265472412,229,2.535
127,145.51909375190735,229,2.535
128,146.65300250053406,228,2.535
129,147.84299087524414,230,2.534
130,148.97897028923035,229,2.534
131,150.14178252220154,228,2.533
132,151.2782588005066,8,2.533
133,152.40393996238708,227,2.533
134,153.54091477394104,228,2.533
135,154.69391870498657,228,2.532
136,155.81586289405823,227,2.532
137,156.96791124343872,228,2.531
138,158.10484719276428,227,2.531
139,159.25499558448792,228,2.531
140,160.3920464515686,227,2.53
141,161.56293058395386,226,2.529
142,162.68599843978882,228,2.529
143,163.84085035324097,227,2.529
144,164.9638500213623,228,2.529
145,166.10394024848938,228,2.529
146,167.2408173084259,227,2.528
147,168.39281010627747,227,2.527
148,169.53075122833252,226,2.527
149,170.66807746887207,226,2.526
150,171.8879988193512,228,2.526
151,173.02385139465332,227,2.525
152,174.1606628894806,227,2.525
153,175.2909860610962,227,2.525
154,176.40702438354492,227,2.525
155,177.54790353775024,227,2.525
156,178.6859998703003,227,2.524
157,179.8238935470581,227,2.523
158,180.97987604141235,226,2.523
159,182.12390184402466,227,2.523
160,183.26087737083435,226,2.522
161,184.3979206085205,226,2.521
162,185.57521080970764,226,2.521
163,186.7767939567566,226,2.521
164,187.92629027366638,225,2.52
165,189.0780050754547,227,2.52
166,190.19997310638428,224,2.52
167,191.35198616981506,224,2.519
168,192.489999294281,226,2.519
169,193.61492443084717,226,2.518
170,194.82296800613403,226,2.517
171,195.98296999931335,223,2.517
172,197.12179327011108,226,2.517
173,198.24395084381104,226,2.517
174,199.38394117355347,227,2.516
175,200.51098132133484,225,2.516
176,201.69693398475647,226,2.516
177,202.82993340492249,23,2.515
178,203.96895146369934,226,2.515
179,205.1179211139679,225,2.515
180,206.25691533088684,226,2.514
181,207.4519166946411,225,2.513
182,208.57304525375366,226,2.513
183,209.69489216804504,225,2.512
184,210.84483933448792,225,2.512
185,211.9658908843994,225,2.512
186,213.14986538887024,225,2.511
187,214.37099051475525,224,2.511
188,215.59188413619995,224,2.511
189,216.72884941101074,225,2.51
190,217.85285472869873,223,2.51
191,218.99876403808594,224,2.51
192,220.13477873802185,223,2.509
193,221.2668900489807,223,2.508
194,222.42976713180542,224,2.508
195,223.55281376838684,224,2.508
196,224.70481872558594,224,2.508
197,225.84181785583496,224,2.507
198,226.9667830467224,223,2.507
199,228.11971354484558,223,2.506
200,229.26595067977905,224,2.506
201,230.37977719306946,224,2.506
204,233.51870846748352,24,2.504
205,234.64763116836548,225,2.504
206,235.78672552108765,222,2.504
207,236.90057182312012,223,2.503
208,238.06072211265564,223,2.503
209,239.24835467338562,224,2.502
210,240.38682055473328,223,2.502
211,241.5908145904541,223,2.502
212,242.74268579483032,224,2.502
213,243.9136893749237,224,2.5
214,245.09169936180115,225,2.5
215,246.3118600845337,223,2.5
216,247.43583250045776,224,2.5
217,248.58576798439026,221,2.5
218,249.72459053993225,224,2.499
219,250.86062288284302,223,2.498
220,252.0326075553894,223,2.498
221,253.14676356315613,223,2.498
222,254.28361630439758,222,2.498
223,255.4337866306305,224,2.497
224,256.58276534080505,223,2.496
225,257.79380464553833,224,2.496
226,258.92874121665955,223,2.495
227,260.08367896080017,222,2.495
228,261.2206172943115,224,2.495
229,262.36068773269653,223,2.495
230,263.4838240146637,222,2.494
231,264.6237630844116,223,2.493
232,265.7557017803192,222,2.493
233,266.9106526374817,222,2.493
234,268.04671835899353,222,2.493
235,269.17267084121704,221,2.493
236,270.31067395210266,222,2.492
237,271.4487178325653,223,2.491
238,272.58474373817444,224,2.491
239,273.72493171691895,221,2.491
240,274.8627452850342,224,2.491
241,275.9887623786926,222,2.49
242,277.2007489204407,223,2.489
243,278.3536820411682,221,2.489
244,279.52472591400146,222,2.489
245,280.74474692344666,221,2.489
246,281.8706622123718,222,2.488
247,283.0095989704132,224,2.487
248,284.17713952064514,221,2.487
249,285.31665658950806,222,2.487
250,286.46843361854553,221,2.486
251,287.663605928421,222,2.486
252,288.82764983177185,221,2.485
253,289.9516270160675,221,2.485
254,291.10368394851685,221,2.484
255,292.24445843696594,221,2.484
256,293.36554193496704,221,2.484
257,294.5036027431488,220,2.484
258,295.6535789966583,221,2.484
259,296.79057908058167,220,2.483
260,297.91352558135986,221,2.483
261,299.0655119419098,220,2.482
262,300.1894826889038,220,2.482
263,301.33457493782043,220,2.481
264,302.4634757041931,220,2.481
265,303.61460852622986,219,2.481
266,304.75248312950134,220,2.481
267,305.89154529571533,219,2.48
268,307.0415108203888,220,2.48
269,308.1663341522217,220,2.478
270,309.3785548210144,219,2.478
271,310.5485520362854,219,2.478
272,311.6875355243683,221,2.478
273,312.82839131355286,220,2.478
274,313.9523334503174,219,2.477
275,315.08830285072327,221,2.477
276,316.2275230884552,221,2.476
277,317.3635427951813,20,2.476
278,318.51552629470825,220,2.475
279,319.64951610565186,220,2.475
280,320.790536403656,218,2.475
281,321.9115288257599,220,2.475
282,323.05048727989197,220,2.474
283,324.1844952106476,19,2.473
284,325.3363780975342,221,2.473
285,326.44547271728516,219,2.472
286,327.64951825141907,219,2.472
287,328.7803764343262,218,2.472
288,329.91751432418823,219,2.471
289,331.0384545326233,219,2.471
290,332.1914596557617,219,2.471
292,334.31379985809326,219,2.469
293,335.4526255130768,218,2.469
294,336.6015045642853,219,2.469
295,337.75447964668274,218,2.469
296,338.8775508403778,218,2.469
297,340.0155498981476,219,2.468
298,341.1435716152191,219,2.468
299,342.3065664768219,218,2.467
300,343.4295928478241,218,2.467
301,344.57056164741516,219,2.467
302,345.70855712890625,218,2.467
303,346.82955384254456,219,2.466
304,347.96953225135803,217,2.465
305,349.1195294857025,218,2.464
306,350.27950406074524,216,2.464
307,351.40055990219116,217,2.464
308,352.550616979599,218,2.464
309,353.6883828639984,217,2.464
310,354.90250849723816,218,2.464
311,356.0374336242676,217,2.463
312,357.1714849472046,218,2.462
313,358.31743574142456,215,2.462
314,359.44245886802673,219,2.462
315,360.58641052246094,219,2.461
316,361.7375268936157,217,2.461
317,362.86139726638794,217,2.46
318,363.9994287490845,217,2.46
319,365.1554892063141,216,2.46
320,366.29444551467896,216,2.46
321,367.41639041900635,216,2.459
322,368.55545353889465,218,2.458
323,369.69234824180603,217,2.458
324,370.8083701133728,219,2.457
325,371.9773910045624,219,2.457
326,373.1814980506897,217,2.457
327,374.30426955223083,219,2.457
328,375.44941782951355,217,2.456
329,376.5953915119171,216,2.456
330,377.7323513031006,217,2.456
331,378.8545081615448,216,2.455
332,380.00643134117126,217,2.454
333,381.12740206718445,216,2.454
334,382.27944326400757,215,2.454
335,383.4003520011902,216,2.454
336,384.5383381843567,217,2.453
337,385.6744611263275,218,2.453
338,386.8133625984192,216,2.452
339,387.94836163520813,217,2.452
340,389.0864999294281,216,2.452
341,390.2354209423065,217,2.452
342,391.3594923019409,216,2.451
343,392.5223026275635,217,2.45
344,393.6463680267334,216,2.45
345,394.78141140937805,215,2.45
346,395.9203567504883,217,2.45
347,397.0683579444885,216,2.449
348,398.21345138549805,217,2.449
349,399.3523328304291,215,2.448
350,400.4783592224121,218,2.448
351,401.62645292282104,216,2.448
352,402.75033378601074,215,2.448
353,403.9342393875122,215,2.447
354,405.124187707901,217,2.446
355,406.3132338523865,214,2.446
356,407.4643213748932,215,2.446
357,408.5963981151581,215,2.446
359,410.73490381240845,16,2.444
360,411.8794376850128,216,2.444
361,413.0063509941101,217,2.444
362,414.2233839035034,217,2.444
363,415.3574049472809,215,2.443
364,416.4963939189911,214,2.443
365,417.6143698692322,215,2.443
366,418.7562806606293,215,2.441
367,419.9254093170166,215,2.441
368,421.0633327960968,213,2.441
369,422.17737317085266,214,2.44
370,423.3203876018524,215,2.44
371,424.45629358291626,215,2.44
372,425.5942883491516,214,2.44
373,426.74238991737366,214,2.439
374,427.86737418174744,215,2.439
375,429.0043065547943,215,2.439
376,430.14536690711975,215,2.438
377,431.3333716392517,214,2.437
378,432.44840836524963,215,2.436
379,433.57938957214355,213,2.436
380,434.71138525009155,215,2.436
381,435.83126854896545,214,2.436
382,436.9703199863434,214,2.435
383,438.1343913078308,213,2.435
384,439.3102889060974,214,2.435
385,440.4482660293579,214,2.435
386,441.5883061885834,214,2.434
387,442.7372205257416,214,2.433
388,443.85620760917664,214,2.433
389,445.044251203537,214,2.433
390,446.1751902103424,214,2.432
391,447.32528138160706,215,2.432
392,448.46724677085876,213,2.431
393,449.59027218818665,214,2.431
394,450.72915387153625,213,2.431
395,451.86618280410767,213,2.43
396,453.00529193878174,214,2.429
397,454.21519112586975,213,2.429
398,455.3602783679962,213,2.429
399,456.48508954048157,213,2.429
400,457.63720083236694,213,2.428
401,458.7622284889221,213,2.428
402,459.89722061157227,213,2.427
403,461.0441026687622,213,2.427
404,462.22621035575867,212,2.427
405,463.40324783325195,213,2.427
406,464.54118156433105,213,2.426
407,465.69315695762634,211,2.426
408,466.82916283607483,212,2.425
409,467.96129083633423,213,2.425
410,469.098210811615,212,2.425
411,470.2520635128021,211,2.424
412,471.426127910614,213,2.423
413,472.6312425136566,213,2.423
414,473.7542452812195,212,2.423
415,474.894184589386,213,2.423
416,476.0300314426422,212,2.423
417,477.17014837265015,212,2.422
418,478.3192937374115,211,2.422
419,479.45621514320374,214,2.421
420,480.5752589702606,212,2.421
421,481.7312638759613,212,2.42
422,482.9082782268524,212,2.42
423,484.0666289329529,212,2.42
424,485.2692828178406,212,2.419
425,486.4062428474426,212,2.419
426,487.5311849117279,213,2.418
427,488.6692078113556,213,2.418
428,489.80522632598877,211,2.418
429,490.943243265152,212,2.417
430,492.0808296203613,212,2.417
431,493.2722246646881,211,2.416
432,494.4090929031372,212,2.416
433,495.5440185070038,211,2.416
434,496.6792073249817,211,2.416
435,497.82816767692566,210,2.415
436,498.9601707458496,213,2.414
437,500.09493684768677,0,2.414
438,501.2301847934723,211,2.414
439,502.3591251373291,210,2.413
440,503.54708671569824,211,2.413
441,504.67014718055725,211,2.413
442,505.8080825805664,210,2.412
443,506.94311118125916,213,2.412
444,508.0800974369049,212,2.412
445,509.22498846054077,210,2.411
446,510.39704275131226,211,2.41
447,511.51912474632263,211,2.409
448,512.7308933734894,12,2.409
449,513.8811395168304,210,2.409
450,515.0059938430786,210,2.409
451,516.14200091362,207,2.409
452,517.3280160427094,209,2.408
453,518.5378954410553,210,2.408
454,519.7101130485535,209,2.407
455,520.8610672950745,211,2.407
456,521.985965013504,209,2.406
457,523.1971468925476,210,2.406
458,524.3741359710693,209,2.406
459,525.5261952877045,208,2.405
460,526.6491229534149,210,2.405
461,527.7890751361847,210,2.404
462,528.925053358078,210,2.404
463,530.0630576610565,211,2.404
464,531.2120943069458,208,2.403
465,532.3810079097748,209,2.403
466,533.6071140766144,209,2.402
467,534.7320742607117,209,2.402
468,535.8669164180756,208,2.402
469,537.0050859451294,9,2.402
470,538.1410028934479,210,2.402
471,539.3399856090546,209,2.401
472,540.5576894283295,209,2.4
473,541.6960279941559,209,2.4
474,542.8460574150085,209,2.4
475,543.9840319156647,208,2.399
476,545.1500477790833,209,2.398
477,546.3180282115936,209,2.398
478,547.4531207084656,209,2.398
479,548.592161655426,209,2.398
480,549.7671196460724,208,2.398
481,550.9071295261383,207,2.397
482,552.0600838661194,208,2.397
483,553.2030911445618,210,2.397
484,554.3430936336517,210,2.396
485,555.489052772522,209,2.395
486,556.613035440445,208,2.395
487,557.7519602775574,207,2.395
488,558.93097615242,207,2.394
489,560.0899617671967,208,2.394
490,561.2269823551178,209,2.394
491,562.3489620685577,208,2.393
492,563.5329339504242,207,2.393
493,564.6700074672699,208,2.393
494,565.8099641799927,208,2.392
495,566.9439694881439,209,2.392
496,568.097724199295,208,2.392
497,569.218977689743,207,2.391
498,570.3599500656128,208,2.391
499,571.4980075359344,208,2.39
500,572.6368052959442,208,2.39
501,573.7880382537842,208,2.39
502,574.9849410057068,208,2.389
503,576.191032409668,208,2.389
504,577.3709626197815,208,2.388
505,578.581934928894,208,2.388
506,579.7339782714844,206,2.388
507,580.9429318904877,207,2.387
508,582.0648813247681,208,2.386
509,583.2950475215912,206,2.386
510,584.4318416118622,207,2.386
511,585.5568702220917,208,2.386
512,586.707891702652,207,2.385
513,587.8470017910004,208,2.385
514,588.9719753265381,208,2.384
515,590.1258614063263,206,2.384
516,591.2588863372803,205,2.384
517,592.3840253353119,207,2.384
518,593.5549664497375,207,2.383
519,594.7728915214539,206,2.383
520,595.9319741725922,206,2.382
521,597.0727138519287,205,2.382
522,598.1928482055664,205,2.381
523,599.3688766956329,206,2.381
525,601.494499206543,6,2.38
526,602.6838941574097,206,2.38
527,603.8928616046906,208,2.379
528,605.0440146923065,205,2.379
529,606.1699182987213,206,2.379
530,607.3100287914276,205,2.378
531,608.4619517326355,206,2.378
532,609.5859823226929,207,2.378
533,610.7499253749847,206,2.377
534,611.9259712696075,6,2.377
535,613.0669519901276,206,2.376
536,614.2349374294281,204,2.376
537,615.3978569507599,206,2.375
538,616.5206859111786,205,2.375
539,617.6589803695679,205,2.374
540,618.7958929538727,206,2.374
541,619.9330804347992,205,2.374
542,621.0478348731995,5,2.374
543,622.2098414897919,205,2.374
544,623.343846321106,205,2.373
545,624.4820013046265,204,2.372
546,625.6178390979767,204,2.372
547,626.7618358135223,206,2.372
548,627.9098453521729,205,2.371
549,629.060827255249,206,2.371
550,630.1828947067261,204,2.37
551,631.3199081420898,204,2.37
552,632.4528768062592,204,2.37
553,633.5899093151093,205,2.37
554,634.7408983707428,205,2.369
555,635.8768916130066,205,2.368
556,637.0007827281952,204,2.368
557,638.1529188156128,204,2.368
560,641.3069851398468,206,2.367
561,642.480950832367,204,2.366
562,643.7119040489197,205,2.366
563,644.8369293212891,203,2.366
564,646.0088596343994,204,2.365
565,647.1619083881378,204,2.365
566,648.2998054027557,204,2.365
567,649.4386537075043,204,2.364
568,650.6348233222961,205,2.364
569,651.7718462944031,204,2.363
570,652.8956964015961,203,2.363
571,654.0498540401459,204,2.362
572,655.1867311000824,203,2.362
573,656.3238451480865,205,2.362
574,657.460866689682,204,2.362
575,658.5838096141815,205,2.361
576,659.7357828617096,201,2.36
577,660.8610050678253,202,2.36
578,662.0037603378296,203,2.36
579,663.1419448852539,203,2.36
580,664.2777650356293,4,2.359
581,665.4166915416718,205,2.359
582,666.5557482242584,203,2.358
583,667.6927063465118,204,2.358
584,668.8437469005585,203,2.358
585,669.9686903953552,201,2.358
586,671.1047575473785,202,2.358
587,672.2427299022675,203,2.357
588,673.3766779899597,204,2.356
589,674.5216829776764,203,2.356
590,675.6577084064484,202,2.355
591,676.796582698822,202,2.355
592,677.9477190971375,203,2.355
593,679.0937008857727,203,2.354
594,680.2466359138489,203,2.354
595,681.377768278122,202,2.353
596,682.5427386760712,203,2.352
597,683.6649143695831,202,2.352
598,684.8156559467316,203,2.352
599,685.9396586418152,2,2.352
600,687.0906267166138,202,2.351
601,688.2138364315033,201,2.351
603,690.3523206710815,203,2.35
604,691.5798270702362,202,2.35
605,692.7048027515411,201,2.35
606,693.8437557220459,201,2.349
607,694.9828548431396,202,2.349
608,696.1456654071808,201,2.348
609,697.2837021350861,201,2.348
610,698.4046812057495,201,2.348
611,699.5426962375641,203,2.348
612,700.6777184009552,202,2.348
613,701.8237030506134,202,2.347
614,702.9606339931488,201,2.346
615,704.1236243247986,201,2.346
616,705.2607967853546,203,2.345
617,706.3987863063812,203,2.345
618,707.556886434555,201,2.344
619,708.7397036552429,201,2.344
620,709.8726654052734,201,2.344
621,711.0088241100311,200,2.344
622,712.1457870006561,199,2.343
623,713.3067510128021,201,2.343
624,714.5007672309875,200,2.343
625,715.6807780265808,201,2.342
626,716.8817684650421,199,2.341
627,718.0026240348816,199,2.341
628,719.1416954994202,200,2.341
629,720.2786724567413,201,2.34
630,721.4166839122772,200,2.34
631,722.5667765140533,200,2.34
632,723.6906142234802,201,2.339
633,724.8407793045044,199,2.339
634,726.0216567516327,199,2.339
635,727.1527900695801,199,2.338
