loop,time,pressure,mass
0,0.10035324096679688,395,4.682
1,2.713646411895752,395,4.682
2,3.8495500087738037,395,4.682
3,4.985568046569824,395,4.682
4,6.122644901275635,394,4.682
5,7.243531942367554,395,4.682
6,8.394576787948608,396,4.682
7,9.523486852645874,393,4.682
8,10.645507335662842,395,4.682
9,11.778634786605835,395,4.682
10,12.92956280708313,395,4.682
11,14.063592195510864,394,4.682
12,15.201572895050049,397,4.682
13,16.33653235435486,395,4.682
14,17.473493099212646,395,4.682
15,18.608340978622437,395,4.682
16,19.745354652404785,395,4.682
17,20.863343238830566,395,4.682
18,22.014368534088135,396,4.682
19,23.14940071105957,396,4.682
20,24.270282983779907,396,4.682
21,25.417335510253906,396,4.682
22,26.53942894935608,397,4.682
23,27.66831684112549,395,4.682
24,28.8043532371521,395,4.682
25,29.939595937728882,395,4.682
26,31.090473651885986,394,4.682
27,32.21044898033142,395,4.682
28,33.345404624938965,396,4.682
29,34.4814727306366,394,4.682
30,35.61830544471741,395,4.682
31,36.752297163009644,396,4.682
32,37.90330386161804,395,4.682
33,39.03335905075073,396,4.682
34,40.16937279701233,94,4.682
35,41.28936719894409,396,4.682
36,42.43836212158203,395,4.682
37,43.56036305427551,395,4.682
38,44.71030139923096,395,4.682
39,45.83136296272278,395,4.682
40,46.976245403289795,395,4.682
41,48.098206758499146,395,4.682
42,49.23218011856079,395,4.682
43,50.36920785903931,394,4.682
44,51.51814365386963,395,4.682
45,52.640169858932495,395,4.682
46,53.77319264411926,395,4.682
47,54.924208641052246,395,4.682
48,56.04220628738403,395,4.682
49,57.192187786102295,397,4.682
50,58.31416702270508,395,4.682
51,59.44931936264038,394,4.682
52,60.59616470336914,396,4.682
53,61.71915340423584,396,4.682
54,62.85419297218323,397,4.682
55,63.99017357826233,396,4.682
56,65.12212181091309,393,4.679
57,66.28415584564209,394,4.677
58,67.40718483924866,393,4.676
59,68.54427361488342,395,4.676
60,69.65724849700928,396,4.676
61,70.792236328125,5,4.677
62,71.92425799369812,395,4.677
63,73.06124138832092,396,4.678
64,74.21124815940857,396,4.678
65,75.34925508499146,397,4.675
66,76.49021124839783,401,4.674
67,77.69416379928589,403,4.674
68,78.8281638622284,402,4.673
69,79.95516896247864,401,4.67
70,81.15718913078308,401,4.667
71,82.29318428039551,401,4.665
72,83.44617009162903,400,4.663
73,84.5691647529602,400,4.662
74,85.70810627937317,400,4.661
75,86.85818457603455,400,4.66
76,87.98412919044495,401,4.658
77,89.12008857727051,399,4.657
79,91.27362203598022,0,4.656
80,92.41605877876282,399,4.656
81,93.55217003822327,398,4.655
82,94.68712735176086,399,4.655
83,95.90111184120178,401,4.655
84,97.02011203765869,401,4.655
85,98.1540937423706,401,4.654
86,99.30412125587463,399,4.653
87,100.51205015182495,0,4.652
88,101.63802719116211,395,4.651
89,102.77404046058655,398,4.65
91,104.92758417129517,392,4.648
92,106.09406566619873,400,4.647
93,107.24502801895142,397,4.646
94,108.38402795791626,397,4.645
95,109.50700521469116,399,4.643
96,110.64503288269043,396,4.642
97,111.78208470344543,396,4.641
98,112.92102718353271,395,4.64
99,114.05804753303528,396,4.639
100,115.21001863479614,393,4.638
101,116.3480167388916,396,4.636
102,117.472012758255,396,4.634
103,118.60903525352478,398,4.632
104,119.74800634384155,395,4.632
105,120.88600778579712,395,4.628
106,122.05598878860474,397,4.628
107,123.2239637374878,398,4.628
108,124.41390323638916,392,4.627
109,125.54693722724915,395,4.626
110,126.6879096031189,393,4.625
111,127.80894899368286,393,4.623
112,128.9489550590515,399,4.622
113,130.09896111488342,400,4.621
116,133.2399604320526,394,4.615
117,134.44383025169373,393,4.612
118,135.58288550376892,390,4.61
119,136.71981596946716,398,4.607
120,137.8588261604309,390,4.604
121,138.99586582183838,384,4.601
122,140.13477754592896,388,4.598
123,141.27175068855286,387,4.596
124,142.42484283447266,391,4.599
125,143.59286952018738,395,4.597
126,144.78183937072754,392,4.597
127,145.91384410858154,388,4.595
128,147.05587697029114,385,4.594
129,148.19284439086914,389,4.593
130,149.34584999084473,388,4.59
131,150.46882605552673,388,4.59
132,151.6208198070526,384,4.589
133,152.8327498435974,386,4.588
134,154.00289106369019,394,4.588
135,155.210844039917,383,4.587
136,156.38279843330383,390,4.586
137,157.58074831962585,387,4.586
139,159.7492709159851,386,4.584
140,160.87579441070557,389,4.583
141,162.0386712551117,388,4.582
142,163.1756842136383,385,4.582
143,164.32862281799316,388,4.581
144,165.4522294998169,386,4.58
145,166.61875224113464,387,4.579
146,167.74683022499084,387,4.578
147,168.86474132537842,389,4.578
148,170.03374695777893,384,4.577
149,171.14677810668945,391,4.576
150,172.27870869636536,385,4.575
151,173.43163800239563,386,4.575
152,174.55871081352234,384,4.574
153,175.70470213890076,385,4.573
154,176.8298466205597,381,4.572
155,177.9676797389984,388,4.572
156,179.13869285583496,385,4.571
157,180.31271743774414,386,4.57
158,181.47469449043274,386,4.568
159,182.62663006782532,386,4.568
160,183.7635841369629,380,4.568
161,184.89363861083984,390,4.567
162,186.02862119674683,383,4.566
163,187.16464614868164,383,4.565
164,188.3016414642334,384,4.564
165,189.45365238189697,384,4.563
166,190.59062933921814,383,4.563
167,191.72560787200928,384,4.563
168,192.85260486602783,383,4.562
169,193.99161887168884,383,4.56
170,195.12852430343628,383,4.56
171,196.28056502342224,383,4.559
172,197.4365701675415,383,4.558
173,198.64157795906067,385,4.558
174,199.78056406974792,382,4.557
175,200.92257642745972,382,4.556
176,202.05957746505737,383,4.553
177,203.19655394554138,383,4.554
178,204.32258296012878,382,4.554
179,205.4565269947052,384,4.553
180,206.6015658378601,382,4.552
181,207.75455975532532,382,4.552
182,208.90854239463806,383,4.551
183,210.11155033111572,383,4.549
184,211.24750971794128,382,4.549
185,212.400484085083,386,4.548
186,213.53149461746216,384,4.548
187,214.64644193649292,383,4.547
188,215.821457862854,380,4.547
189,216.96051216125488,377,4.545
190,218.07448053359985,382,4.544
191,219.22353148460388,382,4.544
192,220.35034203529358,380,4.544
193,221.5033564567566,382,4.543
194,222.69832277297974,381,4.542
195,223.8814091682434,380,4.541
196,225.01344871520996,81,4.54
197,226.14939761161804,382,4.539
198,227.27439737319946,381,4.538
199,228.4174039363861,381,4.538
200,229.55043864250183,380,4.537
201,230.70141744613647,379,4.536
202,231.91443037986755,379,4.535
203,233.0584089756012,384,4.534
204,234.22442603111267,380,4.534
205,235.4403998851776,379,4.533
206,236.5803883075714,379,4.532
207,237.72240781784058,380,4.531
208,238.84037709236145,380,4.53
209,239.97836899757385,380,4.53
210,241.1183009147644,380,4.529
211,242.26832342147827,380,4.528
212,243.39232563972473,379,4.527
213,244.5293493270874,378,4.527
214,245.68235659599304,381,4.526
215,246.80533957481384,379,4.525
216,247.96637392044067,379,4.525
217,249.10432934761047,378,4.524
218,250.21821069717407,384,4.523
219,251.356139421463,377,4.522
220,252.49431848526,378,4.521
222,254.63291382789612,8,4.52
223,255.81424117088318,377,4.519
224,256.95325756073,374,4.518
225,258.0902397632599,377,4.517
226,259.2292387485504,377,4.517
227,260.38029861450195,378,4.516
228,261.5042645931244,382,4.515
229,262.66025400161743,380,4.515
230,263.80625557899475,376,4.514
231,265.0231297016144,377,4.513
232,266.1522424221039,377,4.512
234,268.28671002388,371,4.511
235,269.4681873321533,377,4.509
236,270.60700726509094,378,4.509
237,271.74421286582947,376,4.508
238,272.9132080078125,374,4.507
239,274.04921197891235,377,4.507
240,275.2661907672882,376,4.506
241,276.4021825790405,374,4.505
242,277.52704763412476,75,4.504
243,278.66405749320984,377,4.503
244,279.8030276298523,375,4.503
246,281.9394428730011,374,4.503
247,283.0820689201355,375,4.501
248,284.2620334625244,375,4.5
249,285.3981339931488,380,4.5
250,286.5501489639282,376,4.499
251,287.75607109069824,376,4.498
252,288.90506172180176,374,4.497
253,290.07324051856995,376,4.496
254,291.2939803600311,375,4.496
255,292.4249618053436,373,4.495
256,293.5661153793335,375,4.494
257,294.68906021118164,373,4.493
258,295.8280830383301,376,4.492
259,296.978093624115,372,4.492
260,298.1269898414612,380,4.491
261,299.3309876918793,373,4.49
262,300.4748764038086,373,4.489
263,301.61310386657715,374,4.488
264,302.7500264644623,373,4.488
265,303.95000433921814,373,4.488
266,305.1690502166748,373,4.486
267,306.3660123348236,373,4.485
268,307.5200107097626,373,4.485
269,308.7369866371155,372,4.484
270,309.86006593704224,373,4.483
271,311.023957490921,369,4.483
272,312.14899468421936,372,4.482
273,313.2749044895172,370,4.481
274,314.4258875846863,369,4.48
275,315.5799822807312,1,4.48
276,316.7098162174225,373,4.478
277,317.84079456329346,370,4.478
278,318.9629271030426,371,4.477
279,320.1258370876312,372,4.476
280,321.32982635498047,370,4.476
281,322.4858138561249,372,4.475
282,323.7008969783783,370,4.474
283,324.8429026603699,370,4.473
284,325.9958972930908,373,4.472
285,327.1318509578705,369,4.472
286,328.256689786911,372,4.471
287,329.4077899456024,372,4.47
288,330.53268241882324,375,4.468
289,331.66987442970276,370,4.468
290,332.8228952884674,370,4.467
291,333.95086908340454,71,4.467
292,335.1197078227997,371,4.467
293,336.2556676864624,370,4.466
294,337.45374298095703,368,4.465
295,338.6037664413452,369,4.464
296,339.72871923446655,369,4.463
297,340.8657376766205,369,4.462
298,342.0037314891815,368,4.461
299,343.18573331832886,370,4.461
300,344.3758120536804,369,4.46
301,345.54283571243286,368,4.459
302,346.65679907798767,374,4.458
303,347.787739276886,370,4.457
304,348.9988293647766,372,4.457
305,350.14872646331787,372,4.457
306,351.3166787624359,369,4.456
307,352.44972252845764,369,4.455
308,353.5796568393707,369,4.454
309,354.71068048477173,368,4.453
310,355.84967708587646,368,4.452
311,356.98667645454407,368,4.451
312,358.16265892982483,368,4.451
313,359.3286716938019,368,4.45
314,360.4946012496948,369,4.449
315,361.66373324394226,68,4.448
316,362.80176615715027,368,4.447
317,363.9427318572998,367,4.447
318,365.1156499385834,371,4.446
319,366.2926981449127,366,4.445
320,367.428697347641,369,4.444
321,368.5537438392639,367,4.444
322,369.7396605014801,366,4.443
323,370.88266801834106,366,4.442
324,372.06164360046387,360,4.441
325,373.2007076740265,366,4.44
326,374.3516848087311,367,4.44
327,375.5486743450165,360,4.439
328,376.70367312431335,365,4.438
329,377.86966037750244,368,4.438
330,379.0566837787628,366,4.437
331,380.23264145851135,365,4.435
332,381.36958289146423,366,4.435
333,382.50658798217773,370,4.434
334,383.6616280078888,367,4.433
335,384.79756712913513,366,4.433
336,385.9315574169159,364,4.432
337,387.04456543922424,365,4.431
338,388.2134413719177,364,4.43
339,389.412499666214,368,4.43
340,390.5655941963196,365,4.428
341,391.7034697532654,367,4.428
342,392.8275272846222,364,4.428
343,394.0025827884674,365,4.427
344,395.21346712112427,363,4.426
345,396.3354420661926,365,4.425
346,397.4744350910187,365,4.424
347,398.6255612373352,363,4.423
349,400.82206749916077,364,4.422
350,401.966525554657,359,4.422
351,403.1705183982849,362,4.421
352,404.3015184402466,362,4.42
353,405.4524986743927,361,4.419
354,406.57748222351074,365,4.418
355,407.7864475250244,364,4.418
356,408.9694776535034,363,4.416
357,410.0855362415314,362,4.416
358,411.2373774051666,364,4.415
359,412.376394033432,360,4.414
360,413.5364739894867,361,4.413
361,414.73252034187317,362,4.413
362,415.8694586753845,364,4.412
363,417.00842356681824,362,4.411
364,418.14546298980713,362,4.41
365,419.297443151474,362,4.409
366,420.4353141784668,361,4.409
367,421.60327672958374,365,4.408
368,422.7462935447693,362,4.408
369,423.88231897354126,361,4.407
370,425.0653085708618,361,4.406
371,426.24745512008667,355,4.405
372,427.4503996372223,363,4.404
373,428.5754041671753,360,4.404
374,429.7252595424652,361,4.403
375,430.8653450012207,361,4.402
376,431.99527764320374,359,4.401
377,433.1257333755493,360,4.401
378,434.26322960853577,360,4.4
379,435.40219235420227,366,4.399
380,436.5522129535675,360,4.398
381,437.6782341003418,361,4.397
382,438.8142411708832,361,4.397
383,440.01537227630615,361,4.397
385,442.1876211166382,359,4.394
386,443.3993399143219,360,4.394
387,444.6142978668213,360,4.393
388,445.7382826805115,359,4.391
389,446.8763120174408,359,4.391
390,448.07834672927856,357,4.391
391,449.2163014411926,359,4.39
392,450.4052896499634,361,4.389
393,451.5761396884918,360,4.388
394,452.76731753349304,358,4.387
395,453.904269695282,359,4.387
396,455.0292823314667,358,4.386
397,456.1670091152191,358,4.384
398,457.30427074432373,360,4.384
399,458.4422631263733,358,4.384
400,459.581228017807,358,4.383
401,460.73124074935913,360,4.382
402,461.8581862449646,358,4.381
403,462.9931871891022,358,4.38
404,464.1310338973999,360,4.379
405,465.269234418869,358,4.379
406,466.42120242118835,357,4.379
407,467.56225991249084,357,4.378
408,468.70122265815735,357,4.377
409,469.8562068939209,356,4.376
410,471.0561583042145,358,4.375
412,473.2136859893799,356,4.374
413,474.3861711025238,357,4.373
415,476.52652382850647,356,4.371
416,477.7071342468262,358,4.371
417,478.8441090583801,357,4.369
418,479.96809458732605,355,4.369
419,481.10511350631714,355,4.369
420,482.23313760757446,357,4.368
421,483.38109946250916,360,4.367
422,484.5240387916565,356,4.366
423,485.66211915016174,356,4.366
424,486.7950773239136,356,4.365
425,487.9320981502533,355,4.363
426,489.0710959434509,356,4.363
427,490.2081000804901,358,4.362
428,491.36310267448425,356,4.362
429,492.4989790916443,355,4.361
430,493.66716265678406,352,4.36
431,494.8670709133148,354,4.36
432,495.9909920692444,354,4.359
433,497.12790632247925,354,4.357
434,498.26687240600586,354,4.357
435,499.4039454460144,356,4.356
436,500.54193592071533,355,4.355
437,501.6930317878723,360,4.354
438,502.8317902088165,355,4.353
439,503.9688632488251,353,4.353
440,505.0929687023163,353,4.353
441,506.26595640182495,350,4.352
442,507.39906430244446,352,4.351
443,508.6150252819061,356,4.35
444,509.7409896850586,352,4.349
445,510.87700629234314,350,4.349
446,512.1049883365631,353,4.348
447,513.2249841690063,350,4.347
448,514.3879914283752,353,4.346
449,515.5249280929565,355,4.345
450,516.6997835636139,352,4.345
452,518.8962745666504,355,4.343
453,520.1118545532227,352,4.343
454,521.2868509292603,352,4.342
455,522.4607603549957,351,4.341
456,523.597820520401,351,4.34
458,525.7232930660248,354,4.339
459,526.9038045406342,351,4.339
460,528.0418791770935,352,4.337
461,529.1938993930817,351,4.336
462,530.3308844566345,350,4.336
463,531.5438950061798,355,4.335
464,532.6868805885315,352,4.335
465,533.8258213996887,352,4.333
466,534.9808292388916,352,4.332
467,536.1157846450806,352,4.332
468,537.2528290748596,348,4.331
469,538.4088015556335,350,4.33
470,539.5588545799255,352,4.33
471,540.70583152771,350,4.329
472,541.8828089237213,350,4.328
473,543.0217468738556,350,4.327
474,544.1586737632751,353,4.326
475,545.3267066478729,349,4.325
476,546.5436596870422,354,4.324
477,547.6687152385712,350,4.323
478,548.804765701294,350,4.323
479,550.0167825222015,350,4.323
480,551.151750087738,350,4.322
481,552.3148074150085,349,4.321
482,553.4817430973053,349,4.321
483,554.699634552002,342,4.319
484,555.8235971927643,350,4.318
485,556.9606258869171,349,4.318
486,558.0996317863464,353,4.317
487,559.2366497516632,349,4.316
488,560.3887383937836,349,4.315
489,561.5167458057404,348,4.315
490,562.6507039070129,348,4.314
491,563.7907047271729,349,4.313
492,564.9286606311798,347,4.312
493,566.0636439323425,349,4.311
494,567.2157068252563,348,4.31
495,568.3447089195251,348,4.31
496,569.4776921272278,346,4.31
497,570.6046874523163,348,4.309
498,571.7946808338165,348,4.308
499,572.983617067337,348,4.307
500,574.1226944923401,9,4.306
501,575.3066918849945,347,4.306
502,576.4936611652374,346,4.305
503,577.6437199115753,347,4.304
504,578.769645690918,347,4.303
505,579.9056584835052,347,4.303
506,581.1166415214539,346,4.303
507,582.311671257019,344,4.301
508,583.5105836391449,348,4.3
509,584.6626410484314,346,4.299
510,585.7866020202637,346,4.298
511,586.9436025619507,346,4.296
512,588.0735554695129,347,4.296
513,589.2396330833435,346,4.296
515,591.3910713195801,345,4.295
516,592.6125020980835,347,4.294
517,593.751701593399,345,4.293
518,594.8895733356476,340,4.293
519,596.0916254520416,346,4.291
520,597.2585685253143,344,4.291
521,598.4105446338654,345,4.29
522,599.6384937763214,344,4.29
523,600.7915127277374,343,4.288
524,601.9985172748566,346,4.287
525,603.1365625858307,347,4.287
526,604.2825310230255,346,4.287
527,605.4196035861969,344,4.286
528,606.5544950962067,44,4.285
529,607.6884477138519,344,4.283
530,608.825436592102,344,4.282
531,609.9633846282959,346,4.282
532,611.1724901199341,4,4.281
533,612.3104498386383,336,4.281
534,613.4464511871338,342,4.281
535,614.625470161438,341,4.28
536,615.7494242191315,349,4.279
537,616.9115164279938,343,4.278
538,618.0254671573639,343,4.278
539,619.1634466648102,343,4.277
540,620.3154101371765,343,4.275
541,621.4524433612823,340,4.274
542,622.597377538681,342,4.274
543,623.7273740768433,343,4.273
544,624.9414522647858,342,4.272
545,626.0974175930023,342,4.272
546,627.2213680744171,341,4.27
547,628.3583662509918,342,4.27
548,629.4974048137665,341,4.269
549,630.6833789348602,341,4.268
550,631.8233547210693,342,4.268
551,632.9563817977905,342,4.268
552,634.1203787326813,336,4.266
553,635.2803359031677,341,4.265
554,636.4194071292877,342,4.265
555,637.6093354225159,339,4.264
557,639.7889039516449,340,4.263
558,640.9073276519775,340,4.262
559,642.0203444957733,340,4.261
560,643.1513104438782,341,4.26
561,644.2883291244507,343,4.259
562,645.4523260593414,341,4.259
563,646.6413116455078,340,4.258
564,647.8123042583466,341,4.257
565,648.9342393875122,340,4.257
566,650.126306772232,339,4.255
567,651.3192772865295,339,4.255
568,652.5332708358765,341,4.255
569,653.7073020935059,335,4.253
570,654.9222722053528,339,4.252
571,656.0462634563446,340,4.252
572,657.1832904815674,339,4.25
573,658.322422504425,338,4.25
574,659.459244966507,338,4.249
575,660.611249923706,339,4.248
576,661.7502217292786,339,4.248
577,662.873265504837,338,4.247
578,664.0462169647217,341,4.246
579,665.2592267990112,339,4.246
580,666.399032831192,338,4.244
581,667.5202198028564,336,4.243
582,668.6701982021332,338,4.243
584,670.8146629333496,337,4.242
585,671.9761312007904,339,4.241
586,673.1142027378082,335,4.24
587,674.2981276512146,335,4.239
588,675.4401650428772,337,4.238
589,676.623140335083,337,4.237
590,677.7591443061829,336,4.237
591,678.9121775627136,338,4.236
592,680.0350339412689,338,4.235
593,681.1779446601868,337,4.235
594,682.3240509033203,338,4.234
595,683.4721403121948,336,4.233
596,684.6262369155884,336,4.232
597,685.8179593086243,338,4.232
598,686.9569566249847,335,4.231
599,688.1679770946503,335,4.23
600,689.356965303421,337,4.229
601,690.4699740409851,338,4.229
602,691.6060826778412,336,4.228
603,692.7750782966614,334,4.227
604,693.9300925731659,334,4.226
605,695.1120691299438,35,4.226
606,696.250011920929,338,4.225
607,697.3880002498627,336,4.224
608,698.5330233573914,335,4.223
609,699.6750223636627,336,4.222
610,700.8010258674622,335,4.221
611,701.9730427265167,336,4.221
612,703.1280269622803,334,4.22
613,704.3090133666992,333,4.219
614,705.4480133056641,334,4.218
615,706.58900141716,335,4.218
616,707.7700078487396,335,4.217
617,708.9300203323364,334,4.216
618,710.0439820289612,334,4.216
619,711.2450015544891,331,4.215
620,712.38197016716,334,4.214
621,713.5059401988983,332,4.213
622,714.643937587738,333,4.212
623,715.7819514274597,335,4.212
624,716.9908826351166,334,4.211
625,718.1549270153046,332,4.21
626,719.2919161319733,332,4.21
627,720.4889092445374,334,4.209
628,721.6259236335754,335,4.208
629,722.8169281482697,335,4.207
630,723.9369220733643,333,4.206
631,725.07488322258,333,4.205
632,726.2129056453705,333,4.205
633,727.3548290729523,333,4.204
634,728.4878196716309,334,4.203
635,729.6398274898529,330,4.202
636,730.7778363227844,334,4.202
637,731.9018383026123,331,4.201
638,733.0448789596558,333,4.2
639,734.1778814792633,330,4.199
640,735.31583070755,332,4.197
641,736.4668071269989,331,4.197
