loop,time,pressure,mass
0,0.10019040107727051,386,-999
1,7.486953020095825,300,9.457
2,8.69844102859497,297,9.457
3,9.848935842514038,297,9.457
4,10.990383863449097,296,9.457
5,12.14937949180603,295,9.457
6,13.294446468353271,296,9.457
7,14.43745756149292,295,9.457
8,15.581533432006836,295,9.457
9,16.711518049240112,295,9.457
10,17.857537746429443,296,9.457
11,19.002342224121094,295,9.457
12,20.144383668899536,296,9.457
13,21.301410913467407,295,9.457
14,22.434427738189697,295,9.458
15,23.578433990478516,295,9.458
16,24.71940588951111,295,9.458
17,25.877471923828125,295,9.458
18,27.0225031375885,295,9.458
19,28.15252137184143,295,9.458
20,29.29347801208496,296,9.457
21,30.485259294509888,295,9.456
22,31.629379987716675,295,9.456
23,32.80637836456299,295,9.455
24,33.93441343307495,295,9.455
25,35.07050848007202,295,9.454
26,36.2245032787323,295,9.454
27,37.37235927581787,295,9.453
28,38.557411909103394,295,9.452
29,39.688432455062866,296,9.452
30,40.911381244659424,295,9.452
31,42.098390340805054,295,9.451
32,43.28839373588562,295,9.45
33,44.48143529891968,296,9.45
34,45.62540102005005,295,9.449
35,46.77624797821045,295,9.449
36,47.955300092697144,295,9.448
37,49.07935404777527,296,9.448
38,50.21336841583252,295,9.447
39,51.365270376205444,295,9.447
40,52.495245695114136,295,9.446
41,53.6392388343811,295,9.446
42,54.80640482902527,295,9.445
43,55.97940731048584,295,9.445
44,57.10539197921753,296,9.444
45,58.31538701057434,295,9.443
46,59.48928093910217,294,9.443
47,60.683268785476685,295,9.442
48,61.89120101928711,295,9.441
49,63.0332932472229,296,9.441
50,64.18228912353516,294,9.441
51,65.33124780654907,295,9.44
52,66.47127199172974,295,9.439
53,67.64137625694275,296,9.439
54,68.79435563087463,295,9.439
55,69.92936968803406,296,9.438
56,71.07426619529724,296,9.437
57,72.19335079193115,296,9.437
58,73.31323313713074,296,9.436
59,74.47234725952148,296,9.436
60,75.60714221000671,295,9.436
61,76.75496482849121,296,9.435
62,77.89627456665039,295,9.434
63,79.0502290725708,296,9.434
64,80.20617723464966,295,9.433
65,81.39023351669312,296,9.433
66,82.54622912406921,295,9.432
67,83.73032879829407,296,9.432
68,84.90919542312622,295,9.431
69,86.11723279953003,296,9.431
70,87.26515436172485,295,9.43
71,88.44727611541748,295,9.429
72,89.6392285823822,295,9.429
73,90.76116347312927,295,9.429
74,91.91919612884521,295,9.428
75,93.09822726249695,296,9.427
76,94.21011662483215,296,9.427
77,95.33115887641907,296,9.426
78,96.52727818489075,295,9.425
79,97.6711037158966,296,9.425
80,98.80916166305542,295,9.424
81,100.02404522895813,296,9.424
82,101.1650743484497,295,9.424
83,102.30816841125488,295,9.423
84,103.48519229888916,295,9.422
85,104.66428136825562,296,9.422
86,105.85616755485535,295,9.421
87,106.9890775680542,295,9.421
88,108.14502477645874,295,9.42
89,109.28713703155518,5,9.419
90,110.486079454422,295,9.419
91,111.65111303329468,295,9.418
92,112.76517796516418,295,9.418
93,113.92612504959106,295,9.418
94,115.06611657142639,295,9.417
95,116.19607138633728,295,9.417
96,117.35304594039917,295,9.416
97,118.57209849357605,295,9.416
98,119.79016542434692,296,9.416
99,120.91607451438904,295,9.415
100,122.11000680923462,295,9.414
101,123.23502016067505,295,9.413
102,124.39095950126648,295,9.413
103,125.61405158042908,295,9.412
104,126.80898904800415,295,9.412
105,128.00206995010376,295,9.411
106,129.15708351135254,296,9.41
107,130.28812193870544,296,9.41
108,131.4500253200531,296,9.41
109,132.60713124275208,296,9.409
110,133.7411162853241,295,9.409
111,134.89612436294556,296,9.408
112,136.1171350479126,295,9.407
113,137.26713919639587,296,9.407
114,138.4740743637085,296,9.406
115,139.66912317276,296,9.406
117,141.80958342552185,295,9.404
118,142.94407176971436,296,9.403
119,144.08412146568298,295,9.403
120,145.21809649467468,296,9.403
121,146.35209941864014,296,9.403
122,147.49709916114807,295,9.402
123,148.64606618881226,295,9.401
124,149.7869336605072,295,9.4
125,150.99003863334656,295,9.4
126,152.21090936660767,296,9.399
127,153.3589107990265,295,9.398
128,154.5230357646942,296,9.398
129,155.65404653549194,295,9.397
130,156.77398109436035,296,9.396
131,157.92303681373596,295,9.396
132,159.07297348976135,295,9.396
133,160.20387601852417,295,9.396
134,161.3459198474884,295,9.395
135,162.461975812912,296,9.394
136,163.60894346237183,295,9.394
137,164.7547948360443,296,9.393
138,165.8749566078186,295,9.392
139,167.01198148727417,295,9.391
140,168.15086317062378,295,9.391
141,169.30998182296753,296,9.391
142,170.44896841049194,295,9.39
143,171.57794499397278,295,9.389
144,172.7157759666443,295,9.388
145,173.8659152984619,296,9.388
146,175.01300430297852,295,9.388
147,176.14278411865234,295,9.387
148,177.30994725227356,295,9.386
149,178.49996495246887,295,9.385
150,179.62383103370667,295,9.385
151,180.73785614967346,295,9.385
152,181.88189506530762,296,9.385
153,183.03998637199402,295,9.384
154,184.17492413520813,296,9.383
155,185.32289600372314,295,9.383
156,186.46792840957642,295,9.382
157,187.59183430671692,295,9.382
158,188.74981212615967,295,9.381
159,189.86281609535217,295,9.381
160,191.0278811454773,295,9.38
161,192.23595595359802,296,9.379
162,193.37695336341858,295,9.379
163,194.53594303131104,296,9.378
164,195.68091249465942,295,9.378
165,196.82084798812866,6,9.377
166,198.03791689872742,295,9.377
167,199.17186403274536,296,9.376
168,200.29167652130127,295,9.376
169,201.43186473846436,295,9.375
170,202.5756630897522,295,9.374
171,203.74284410476685,295,9.373
172,204.93975448608398,295,9.373
173,206.07875037193298,296,9.373
174,207.22782278060913,296,9.373
175,208.37180948257446,295,9.372
176,209.52078294754028,295,9.37
177,210.65473127365112,295,9.37
178,211.8747329711914,95,9.37
179,213.02768206596375,295,9.369
180,214.1837465763092,295,9.369
181,215.3858606815338,295,9.368
182,216.52786326408386,295,9.368
183,217.6648519039154,295,9.367
184,218.84174132347107,295,9.367
185,220.00468969345093,95,9.366
186,221.1997835636139,295,9.365
187,222.31181073188782,295,9.365
188,223.49667096138,295,9.364
189,224.6447150707245,295,9.364
190,225.78474473953247,295,9.363
191,226.93076729774475,295,9.363
192,228.0896680355072,295,9.362
193,229.2137176990509,295,9.361
194,230.3527693748474,295,9.361
195,231.50258135795593,295,9.361
196,232.64969730377197,295,9.36
197,233.8077256679535,295,9.36
198,234.93446683883667,295,9.359
199,236.088764667511,295,9.359
200,237.28875923156738,295,9.358
201,238.43679285049438,295,9.358
202,239.5556299686432,295,9.357
203,240.70068335533142,295,9.356
204,241.8360743522644,295,9.355
205,242.98762273788452,295,9.355
206,244.13159799575806,295,9.355
207,245.33569288253784,295,9.354
208,246.46857380867004,295,9.354
209,247.62056422233582,295,9.353
210,248.7667112350464,295,9.353
211,249.90874767303467,295,9.352
212,251.05282831192017,295,9.352
213,252.25650072097778,295,9.351
214,253.3916175365448,296,9.35
215,254.53255534172058,295,9.35
216,255.6695327758789,296,9.35
217,256.80965924263,295,9.349
218,257.98374819755554,295,9.349
219,259.17858958244324,295,9.348
220,260.314489364624,295,9.347
221,261.4637222290039,96,9.347
222,262.61064434051514,295,9.346
223,263.75260853767395,294,9.346
224,264.89551162719727,294,9.346
225,266.0475959777832,294,9.345
226,267.17664432525635,294,9.344
227,268.3385307788849,294,9.344
228,269.510466337204,294,9.343
229,270.6515955924988,294,9.343
230,271.81564259529114,294,9.342
231,272.9755563735962,294,9.342
232,274.1115937232971,94,9.341
233,275.2555913925171,294,9.341
234,276.447674036026,294,9.34
235,277.62865805625916,4,9.34
236,278.7554409503937,295,9.34
237,279.899610042572,295,9.339
238,281.09451508522034,295,9.338
239,282.2325031757355,295,9.338
240,283.377628326416,295,9.337
241,284.5116424560547,295,9.336
242,285.63162326812744,295,9.336
243,286.8006179332733,295,9.336
244,287.9555833339691,295,9.335
245,289.0906276702881,295,9.334
246,290.3036081790924,295,9.334
247,291.459609746933,295,9.333
248,292.62864661216736,295,9.333
249,293.7604224681854,295,9.332
250,294.9495449066162,295,9.332
251,296.1745524406433,295,9.331
252,297.2965590953827,296,9.331
253,298.4905848503113,295,9.33
254,299.60647988319397,295,9.329
255,300.7514543533325,295,9.329
256,301.8974025249481,295,9.329
257,303.04037141799927,295,9.329
258,304.1874256134033,295,9.328
259,305.3684539794922,295,9.327
260,306.55244874954224,295,9.327
261,307.69943141937256,296,9.326
262,308.885372877121,295,9.326
263,310.0124578475952,296,9.325
264,311.15731549263,295,9.324
265,312.3084490299225,296,9.324
266,313.4524247646332,295,9.324
267,314.57940888404846,295,9.323
268,315.7854194641113,295,9.323
269,316.9473841190338,295,9.322
270,318.11731600761414,296,9.322
271,319.2404565811157,295,9.321
272,320.38334131240845,295,9.32
273,321.5823907852173,295,9.32
274,322.71951961517334,295,9.32
275,323.8645634651184,295,9.32
276,325.0154666900635,295,9.318
277,326.154438495636,295,9.317
278,327.3514630794525,295,9.317
279,328.53550839424133,295,9.317
280,329.6634705066681,295,9.316
281,330.83047246932983,295,9.316
282,332.02638697624207,295,9.315
283,333.1444396972656,294,9.314
284,334.33334851264954,295,9.314
285,335.49020290374756,295,9.314
286,336.6704123020172,295,9.313
287,337.8024296760559,295,9.312
288,338.99926114082336,294,9.312
289,340.20134139060974,295,9.311
290,341.33929657936096,295,9.311
291,342.495290517807,294,9.31
292,343.65536642074585,294,9.31
293,344.7952952384949,294,9.31
294,345.93935537338257,294,9.309
295,347.1474759578705,294,9.308
296,348.2633798122406,294,9.308
297,349.4084324836731,294,9.307
298,350.59342074394226,295,9.306
299,351.73933267593384,295,9.306
300,352.86837553977966,295,9.305
301,354.0073404312134,295,9.304
302,355.21738052368164,295,9.304
303,356.3593337535858,295,9.304
304,357.4883818626404,295,9.303
305,358.64437079429626,295,9.303
306,359.79635763168335,295,9.302
307,360.9203269481659,295,9.301
308,362.058363199234,295,9.3
309,363.28534841537476,295,9.3
310,364.41230630874634,295,9.3
311,365.57916259765625,295,9.299
312,366.72935461997986,295,9.299
313,367.8913404941559,295,9.298
314,369.0262761116028,295,9.297
315,370.1762623786926,95,9.297
316,371.31829285621643,295,9.297
317,372.46529817581177,295,9.296
318,373.62425994873047,295,9.295
319,374.81913805007935,295,9.295
320,375.99514293670654,295,9.294
321,377.132155418396,294,9.293
322,378.3230061531067,294,9.293
323,379.4672269821167,294,9.292
324,380.68031120300293,294,9.292
325,381.80023312568665,294,9.291
326,382.95823073387146,294,9.291
327,384.08811807632446,294,9.29
328,385.28824281692505,294,9.289
329,386.45029044151306,294,9.289
330,387.60411739349365,294,9.288
331,388.81309032440186,294,9.287
332,390.00215339660645,294,9.287
334,392.1596739292145,294,9.286
335,393.38527727127075,294,9.285
336,394.5362627506256,294,9.285
337,395.7321240901947,294,9.285
338,396.95219326019287,294,9.284
339,398.1311378479004,294,9.283
340,399.2642595767975,294,9.283
341,400.4592237472534,294,9.282
342,401.65317940711975,294,9.282
343,402.8791003227234,294,9.281
344,404.01321959495544,295,9.28
345,405.19905829429626,294,9.279
346,406.347017288208,294,9.279
347,407.5451588630676,294,9.279
348,408.7570824623108,294,9.278
349,409.88301396369934,294,9.278
350,411.01104497909546,294,9.277
351,412.1541335582733,294,9.277
352,413.3212044239044,294,9.276
353,414.4909608364105,294,9.275
354,415.6310248374939,294,9.274
355,416.766921043396,294,9.274
356,417.94203996658325,294,9.273
357,419.08606600761414,294,9.273
358,420.2301790714264,293,9.273
359,421.37103605270386,294,9.272
360,422.53485345840454,294,9.271
361,423.7373652458191,295,9.271
362,424.9011399745941,295,9.27
363,426.0971155166626,295,9.269
364,427.30807638168335,295,9.269
365,428.4250702857971,295,9.268
366,429.56915378570557,295,9.267
368,431.70954275131226,295,9.267
369,432.9210879802704,295,9.267
370,434.07012820243835,295,9.266
371,435.27411246299744,295,9.265
372,436.3971128463745,295,9.264
373,437.5720250606537,295,9.264
374,438.7149167060852,295,9.264
375,439.91815304756165,295,9.263
376,441.0410497188568,294,9.262
377,442.23507738113403,294,9.261
378,443.36302876472473,294,9.261
379,444.50797176361084,294,9.261
381,446.6654853820801,294,9.26
382,447.8119933605194,294,9.259
383,448.94702768325806,294,9.258
384,450.1580550670624,294,9.258
385,451.3091161251068,294,9.257
386,452.4410779476166,294,9.257
387,453.58718609809875,294,9.256
388,454.72899055480957,294,9.256
389,455.88395142555237,294,9.255
391,458.0064160823822,294,9.254
392,459.15291380882263,294,9.253
393,460.30583238601685,294,9.253
394,461.4520089626312,294,9.253
395,462.56999039649963,294,9.252
396,463.7009024620056,294,9.251
397,464.84293007850647,294,9.25
398,465.9969744682312,294,9.25
399,467.1929748058319,294,9.25
400,468.34897470474243,94,9.249
401,469.49194717407227,294,9.248
402,470.6610245704651,294,9.248
403,471.852903842926,294,9.247
404,473.00593876838684,294,9.247
405,474.1429326534271,294,9.246
406,475.2849373817444,294,9.246
407,476.4459080696106,294,9.245
408,477.64098262786865,294,9.244
409,478.77886867523193,294,9.244
410,479.9320561885834,294,9.243
411,481.1098458766937,294,9.243
412,482.2679660320282,294,9.242
413,483.45080614089966,294,9.241
414,484.62398290634155,294,9.241
415,485.7547631263733,294,9.241
416,486.91292929649353,294,9.24
417,488.0857799053192,294,9.239
418,489.2107799053192,294,9.239
419,490.37359285354614,294,9.238
420,491.501015663147,294,9.238
421,492.64896750450134,294,9.238
422,493.7837619781494,294,9.237
423,494.94187021255493,294,9.236
424,496.0819411277771,294,9.236
425,497.25091671943665,294,9.235
426,498.3929092884064,294,9.234
427,499.55891394615173,294,9.234
428,500.6818678379059,294,9.233
429,501.83886313438416,295,9.232
430,502.9738473892212,295,9.232
431,504.15381240844727,295,9.232
432,505.2798647880554,295,9.231
433,506.4918324947357,95,9.231
434,507.63787484169006,295,9.23
435,508.83886098861694,295,9.229
436,509.97585916519165,295,9.229
437,511.1236343383789,295,9.228
438,512.2997670173645,294,9.227
439,513.4278280735016,294,9.227
440,514.55770611763,294,9.227
441,515.7016649246216,294,9.225
442,516.8966450691223,294,9.225
443,518.0797927379608,294,9.225
444,519.2408277988434,294,9.224
445,520.3766114711761,294,9.224
446,521.5328342914581,294,9.223
447,522.675680398941,294,9.223
448,523.8317556381226,294,9.222
449,525.0147001743317,294,9.221
450,526.1986136436462,294,9.221
451,527.3458323478699,294,9.22
452,528.4745507240295,294,9.22
453,529.6207330226898,294,9.22
454,530.7407801151276,294,9.218
456,532.8908936977386,294,9.217
457,534.0698082447052,294,9.217
458,535.2117071151733,294,9.217
459,536.4196262359619,294,9.216
460,537.577689409256,294,9.215
461,538.7237467765808,294,9.214
462,539.9267656803131,294,9.214
463,541.1137292385101,295,9.214
464,542.278642654419,294,9.213
465,543.4455308914185,294,9.212
466,544.5665118694305,294,9.212
467,545.7057631015778,294,9.211
468,546.878618478775,294,9.211
469,548.0686180591583,294,9.21
470,549.2425529956818,294,9.21
471,550.3687243461609,294,9.209
472,551.5316638946533,294,9.208
473,552.7517516613007,294,9.208
474,553.9306662082672,294,9.208
475,555.098507642746,294,9.208
476,556.2446441650391,294,9.207
478,558.3881840705872,294,9.205
479,559.5659906864166,294,9.205
480,560.7166049480438,294,9.204
481,561.8936238288879,294,9.204
482,563.0357213020325,294,9.203
483,564.191529750824,295,9.203
484,565.3806102275848,295,9.201
485,566.4986684322357,295,9.201
486,567.6467022895813,295,9.201
487,568.7766606807709,295,9.2
488,569.9206311702728,295,9.2
489,571.0646543502808,294,9.199
490,572.178619146347,295,9.199
491,573.311619758606,295,9.198
492,574.456639289856,295,9.198
493,575.6106395721436,295,9.197
494,576.7546422481537,295,9.197
495,577.9145863056183,295,9.196
496,579.1115605831146,294,9.196
497,580.2955918312073,295,9.195
498,581.4216377735138,295,9.195
499,582.5664219856262,294,9.194
500,583.7435927391052,294,9.193
501,584.8866264820099,294,9.193
502,586.0075478553772,294,9.192
503,587.2086400985718,294,9.192
504,588.3616244792938,294,9.191
505,589.5283873081207,294,9.191
506,590.6765654087067,294,9.191
507,591.8315043449402,294,9.19
508,593.0115659236908,294,9.189
509,594.2125918865204,294,9.189
510,595.3414626121521,293,9.189
511,596.4854061603546,294,9.188
512,597.636438369751,294,9.187
513,598.7654504776001,294,9.186
514,599.9135000705719,294,9.186
515,601.0673778057098,294,9.186
516,602.2254359722137,294,9.185
517,603.3524870872498,294,9.184
518,604.5375363826752,294,9.184
519,605.7144756317139,294,9.183
520,606.8574676513672,294,9.182
521,608.017340183258,294,9.182
522,609.21355676651,294,9.181
523,610.353390455246,294,9.181
524,611.5013194084167,294,9.181
525,612.6234467029572,294,9.18
526,613.8114638328552,294,9.18
527,614.9414412975311,294,9.179
528,616.0775098800659,294,9.178
529,617.2815034389496,294,9.178
530,618.4494576454163,294,9.177
531,619.6744439601898,294,9.177
532,620.8084197044373,294,9.176
533,621.9814078807831,294,9.175
534,623.1123285293579,294,9.175
535,624.3284025192261,294,9.174
536,625.4993741512299,294,9.174
537,626.6673531532288,294,9.174
538,627.7912809848785,294,9.173
539,628.9123778343201,294,9.173
541,631.0627727508545,294,9.171
542,632.2453784942627,294,9.171
543,633.4393784999847,294,9.171
544,634.5793023109436,294,9.17
545,635.7434463500977,294,9.169
546,636.8693852424622,294,9.169
547,638.0754096508026,294,9.169
548,639.2924149036407,294,9.168
549,640.4344024658203,295,9.167
550,641.6283664703369,294,9.167
551,642.7583899497986,294,9.166
552,643.9563624858856,294,9.166
553,645.1264405250549,294,9.165
554,646.3243885040283,4,9.164
555,647.4644281864166,294,9.164
556,648.621387720108,294,9.164
557,649.7513558864594,294,9.163
558,650.9483921527863,294,9.162
559,652.0903875827789,294,9.162
560,653.2215473651886,294,9.161
561,654.3971979618073,294,9.161
562,655.592143535614,294,9.16
563,656.7572617530823,294,9.159
564,657.9892823696136,294,9.159
565,659.121208190918,294,9.158
567,661.2776484489441,294,9.157
568,662.4830987453461,294,9.157
569,663.6252291202545,294,9.156
570,664.815187215805,294,9.156
571,665.936297416687,294,9.155
572,667.0783252716064,294,9.155
573,668.2793138027191,294,9.154
574,669.4012467861176,294,9.154
575,670.5472462177277,294,9.153
576,671.7081649303436,294,9.152
577,672.8882162570953,294,9.152
578,674.0660636425018,294,9.152
579,675.2223155498505,294,9.151
580,676.3482148647308,294,9.15
581,677.5201847553253,294,9.149
582,678.6723113059998,294,9.149
583,679.8932144641876,294,9.149
584,681.0382945537567,294,9.149
585,682.1682996749878,294,9.148
586,683.3072550296783,294,9.147
587,684.5171163082123,294,9.147
588,685.6619946956635,294,9.147
589,686.8032121658325,294,9.146
590,687.9521799087524,294,9.145
591,689.1021049022675,294,9.144
592,690.3172624111176,294,9.144
593,691.4692091941833,294,9.143
594,692.6150679588318,294,9.143
595,693.8241531848907,294,9.142
596,694.9511947631836,294,9.142
597,696.1441860198975,294,9.142
598,697.2711517810822,294,9.141
599,698.4112019538879,294,9.14
600,699.6150388717651,294,9.14
601,700.7760672569275,294,9.14
602,701.9309475421906,294,9.139
603,703.0721371173859,294,9.138
604,704.260057926178,294,9.137
605,705.3992259502411,294,9.137
606,706.5501461029053,294,9.137
607,707.6980588436127,294,9.136
608,708.8241946697235,294,9.135
609,709.9640820026398,4,9.134
610,711.0901324748993,294,9.134
611,712.2372002601624,294,9.134
612,713.3761966228485,94,9.133
613,714.5021884441376,294,9.133
614,715.6501624584198,294,9.132
617,718.7960650920868,294,9.131
618,719.999178647995,294,9.13
619,721.203164100647,294,9.129
620,722.3621401786804,294,9.128
621,723.5100591182709,295,9.128
622,724.673125743866,294,9.128
623,725.8019981384277,294,9.127
624,726.9361035823822,294,9.127
625,728.0639886856079,294,9.126
626,729.2161493301392,294,9.126
627,730.3861327171326,294,9.126
628,731.5390679836273,294,9.125
629,732.6829817295074,294,9.124
630,733.8788616657257,294,9.124
631,734.993052482605,294,9.123
632,736.181948184967,294,9.123
633,737.3229124546051,294,9.122
634,738.5089209079742,294,9.121
635,739.6530029773712,294,9.121
