loop,time,pressure,mass
0,0.10026144981384277,383,4.564
1,2.697408676147461,384,4.564
2,3.830435276031494,383,4.564
3,4.965404510498047,384,4.564
4,6.100532054901123,385,4.564
5,7.233422517776489,384,4.564
6,8.366379976272583,384,4.564
7,9.498400211334229,384,4.564
8,10.632594347000122,384,4.564
9,11.767474889755249,384,4.564
10,12.906527042388916,384,4.564
11,14.057511329650879,383,4.564
12,15.17631983757019,383,4.564
13,16.326393365859985,384,4.564
14,17.48933506011963,383,4.565
15,18.646364450454712,383,4.565
16,19.802451610565186,383,4.565
17,20.94638156890869,383,4.565
18,22.09544014930725,3,4.565
19,23.2333767414093,384,4.565
20,24.37036156654358,384,4.565
21,25.50736904144287,384,4.564
22,26.629353761672974,383,4.564
23,27.80049443244934,383,4.565
24,28.975475072860718,382,4.565
25,30.14445662498474,383,4.559
26,31.313457489013672,383,4.563
27,32.45244264602661,384,4.567
28,33.59543514251709,384,4.568
29,34.77842879295349,382,4.568
30,35.9943528175354,384,4.565
31,37.19533658027649,383,4.562
32,38.33336281776428,384,4.561
33,39.47137904167175,383,4.56
34,40.66132473945618,386,4.56
35,41.79538369178772,380,4.56
36,42.945392370224,381,4.559
37,44.131377935409546,380,4.556
38,45.26937818527222,379,4.554
39,46.40636444091797,382,4.553
40,47.53037118911743,380,4.552
41,48.669342041015625,383,4.552
42,49.841346979141235,379,4.551
43,51.02427101135254,382,4.551
44,52.160221576690674,381,4.55
45,53.3193142414093,378,4.549
46,54.47633099555969,380,4.549
47,55.60128736495972,380,4.546
48,56.78031849861145,377,4.545
49,57.965274810791016,379,4.545
50,59.100281953811646,380,4.544
51,60.24426555633545,378,4.544
52,61.375274419784546,377,4.543
53,62.51631951332092,380,4.543
54,63.65025210380554,383,4.542
55,64.83828926086426,378,4.54
56,66.05123591423035,381,4.538
57,67.23030805587769,380,4.538
58,68.43027019500732,385,4.536
59,69.6342306137085,377,4.537
60,70.8232216835022,378,4.537
61,71.95824551582336,381,4.537
62,73.1102225780487,378,4.536
63,74.22916531562805,379,4.535
64,75.42120957374573,380,4.534
65,76.54530358314514,380,4.534
66,77.68322372436523,379,4.533
67,78.82120776176453,379,4.532
68,79.95921444892883,380,4.531
69,81.1101655960083,379,4.53
70,82.24821543693542,382,4.53
71,83.38915634155273,379,4.529
72,84.51020288467407,377,4.529
73,85.62418127059937,377,4.527
74,86.78613018989563,373,4.525
75,87.954181432724,379,4.526
76,89.09110903739929,377,4.525
77,90.22508788108826,377,4.524
78,91.35313320159912,380,4.523
79,92.4761643409729,379,4.523
80,93.6631486415863,377,4.522
81,94.79756999015808,379,4.521
83,96.99764728546143,376,4.519
84,98.200119972229,376,4.519
85,99.34814047813416,372,4.519
86,100.47413301467896,375,4.518
87,101.67307353019714,378,4.517
89,103.82462430000305,377,4.516
90,104.9810676574707,378,4.515
91,106.13006949424744,376,4.513
92,107.30311894416809,376,4.512
93,108.4450786113739,380,4.512
94,109.57707285881042,375,4.511
95,110.78413081169128,375,4.511
96,111.93205189704895,372,4.511
97,113.07705044746399,373,4.508
98,114.26902723312378,375,4.508
99,115.44606065750122,376,4.508
100,116.64103364944458,372,4.507
101,117.79705214500427,374,4.507
102,118.9480652809143,374,4.506
103,120.1180350780487,372,4.505
105,122.3014976978302,373,4.503
106,123.49698448181152,373,4.503
107,124.62399315834045,369,4.5
108,125.76802134513855,375,4.499
109,126.97102165222168,375,4.499
110,128.09901237487793,377,4.499
111,129.23800039291382,374,4.499
112,130.3689374923706,375,4.499
113,131.56698036193848,373,4.497
114,132.7189404964447,371,4.495
116,134.84855461120605,369,4.495
117,136.05496883392334,371,4.494
118,137.18897008895874,374,4.494
119,138.37794375419617,375,4.493
120,139.51996564865112,371,4.492
121,140.65695071220398,372,4.491
122,141.81394481658936,371,4.49
123,143.0138874053955,376,4.49
124,144.15192079544067,370,4.489
125,145.35594201087952,373,4.488
126,146.54591464996338,367,4.488
127,147.65990805625916,375,4.487
128,148.79887461662292,369,4.485
129,149.9358832836151,372,4.485
130,151.12190079689026,372,4.485
131,152.2588427066803,370,4.484
132,153.4019227027893,373,4.481
133,154.57081770896912,371,4.481
134,155.7668855190277,375,4.481
135,156.9578275680542,373,4.478
136,158.09681606292725,370,4.479
137,159.25385284423828,371,4.478
138,160.40485548973083,371,4.477
139,161.57277083396912,373,4.477
140,162.7837462425232,370,4.477
141,163.92282676696777,371,4.474
142,165.1148316860199,375,4.474
143,166.3208875656128,367,4.474
144,167.45084047317505,368,4.474
145,168.63880443572998,371,4.472
146,169.83780813217163,367,4.472
147,171.031813621521,368,4.471
148,172.24885272979736,370,4.469
149,173.4137578010559,366,4.469
150,174.64973139762878,369,4.469
151,175.77065753936768,370,4.468
152,176.97668385505676,369,4.467
153,178.11361122131348,369,4.467
154,179.23965525627136,366,4.466
155,180.4047145843506,372,4.465
156,181.62571454048157,366,4.465
157,182.77874422073364,370,4.464
158,183.9756362438202,369,4.462
159,185.12763929367065,369,4.461
160,186.28157329559326,365,4.461
161,187.4325840473175,364,4.461
162,188.55359745025635,370,4.46
163,189.75958061218262,369,4.459
164,190.9855773448944,368,4.458
165,192.10862016677856,371,4.456
166,193.31363987922668,365,4.456
167,194.4325442314148,369,4.456
168,195.56653785705566,366,4.456
169,196.71051144599915,367,4.455
170,197.91454696655273,369,4.454
171,199.06355237960815,365,4.453
172,200.2455701828003,363,4.452
173,201.438560962677,366,4.451
174,202.56253004074097,369,4.451
175,203.68651509284973,367,4.448
176,204.86254334449768,363,4.447
177,206.07065987586975,369,4.447
178,207.20564532279968,363,4.447
179,208.34363746643066,367,4.447
180,209.47863030433655,368,4.447
181,210.63462257385254,365,4.446
182,211.75861310958862,367,4.445
183,212.89659810066223,365,4.444
184,214.03663682937622,363,4.442
185,215.22460985183716,368,4.442
186,216.41659450531006,366,4.441
187,217.56155586242676,365,4.44
188,218.75757217407227,366,4.44
189,219.8905258178711,365,4.439
190,221.0335373878479,368,4.439
191,222.18357348442078,362,4.438
192,223.33858942985535,367,4.437
193,224.47756361961365,367,4.436
194,225.60157561302185,361,4.436
195,226.78561162948608,366,4.434
196,227.9235541820526,364,4.434
197,229.11150193214417,369,4.434
198,230.24648594856262,360,4.431
199,231.4235348701477,367,4.431
200,232.60049986839294,363,4.43
201,233.73847270011902,364,4.43
202,234.91863632202148,362,4.43
203,236.0385181903839,364,4.43
204,237.18848252296448,364,4.428
205,238.3084807395935,364,4.427
206,239.46049690246582,364,4.427
207,240.61750316619873,359,4.426
208,241.82948064804077,365,4.425
209,243.00637245178223,360,4.425
210,244.12532901763916,361,4.424
211,245.32440972328186,364,4.423
212,246.48530864715576,362,4.422
213,247.6553201675415,363,4.422
214,248.8563072681427,363,4.421
215,249.98625779151917,361,4.42
216,251.11029195785522,360,4.419
217,252.2934215068817,362,4.418
218,253.47939276695251,358,4.418
219,254.65042304992676,361,4.415
220,255.77341079711914,363,4.416
221,256.9384181499481,364,4.416
222,258.0564260482788,361,4.415
223,259.1923611164093,362,4.414
224,260.30637764930725,362,4.413
225,261.4433581829071,361,4.412
226,262.5953872203827,361,4.41
227,263.76538276672363,362,4.41
228,264.9743683338165,361,4.407
229,266.13435101509094,361,4.408
230,267.3193738460541,361,4.408
231,268.44834661483765,360,4.408
232,269.58528661727905,361,4.408
233,270.75035405158997,362,4.407
234,271.87334275245667,360,4.406
235,273.0113215446472,0,4.404
236,274.1853561401367,361,4.404
237,275.4193322658539,62,4.403
238,276.54032254219055,359,4.4
239,277.67031264305115,357,4.4
240,278.8543028831482,360,4.4
241,279.97030425071716,361,4.4
242,281.10529613494873,359,4.399
243,282.3043460845947,359,4.399
244,283.47429513931274,359,4.398
245,284.6162488460541,358,4.397
246,285.8122866153717,359,4.397
247,287.0262475013733,359,4.396
248,288.19126653671265,360,4.395
249,289.3643617630005,358,4.394
250,290.52725172042847,359,4.393
251,291.6821975708008,359,4.392
252,292.83126950263977,355,4.392
253,293.95424914360046,358,4.391
254,295.0882420539856,359,4.391
255,296.2662208080292,363,4.389
256,297.47522735595703,359,4.389
257,298.6150815486908,58,4.387
258,299.8081090450287,355,4.387
259,300.9922139644623,358,4.386
260,302.185085773468,357,4.386
261,303.3061077594757,356,4.383
262,304.5130522251129,356,4.383
263,305.73301577568054,358,4.383
264,306.8701608181,356,4.383
265,308.03208112716675,357,4.382
266,309.1450378894806,357,4.381
267,310.27805352211,357,4.38
268,311.4649610519409,7,4.379
269,312.68203616142273,359,4.379
270,313.8320846557617,356,4.379
271,314.952041387558,354,4.378
272,316.1630609035492,358,4.375
273,317.35613441467285,358,4.375
274,318.4859848022461,357,4.375
275,319.6870150566101,355,4.374
276,320.8449785709381,355,4.374
277,321.9651439189911,356,4.373
278,323.17411732673645,356,4.373
279,324.3109428882599,355,4.372
280,325.4629979133606,355,4.371
281,326.62410044670105,355,4.37
282,327.8181142807007,356,4.37
283,328.9550838470459,353,4.369
284,330.1080811023712,356,4.368
285,331.24403977394104,355,4.368
286,332.37000012397766,355,4.366
287,333.50706577301025,355,4.365
288,334.64483094215393,354,4.365
289,335.79592394828796,352,4.364
290,336.9299578666687,356,4.363
291,338.0648853778839,354,4.363
292,339.26890206336975,351,4.363
293,340.38904428482056,356,4.36
294,341.5790288448334,348,4.359
295,342.78394985198975,350,4.358
296,343.94098353385925,351,4.358
297,345.11897468566895,353,4.358
298,346.24200224876404,353,4.356
299,347.45184659957886,353,4.356
300,348.5949704647064,353,4.356
301,349.7759220600128,355,4.355
302,350.9689552783966,352,4.352
303,352.1519055366516,352,4.352
304,353.3689835071564,351,4.352
305,354.4908537864685,353,4.352
306,355.63781809806824,352,4.351
307,356.7749626636505,351,4.35
308,357.97697043418884,352,4.349
309,359.1819677352905,351,4.348
310,360.35995650291443,351,4.348
311,361.5636794567108,352,4.347
312,362.71376276016235,351,4.347
313,363.85081338882446,353,4.346
314,365.0028178691864,352,4.345
315,366.1398012638092,352,4.345
316,367.2648227214813,352,4.343
317,368.4018015861511,351,4.343
318,369.6148271560669,351,4.34
319,370.7747452259064,351,4.34
320,371.9219207763672,351,4.34
321,373.04189586639404,350,4.34
322,374.20288252830505,351,4.339
323,375.32388615608215,52,4.336
324,376.48478078842163,352,4.337
325,377.63982605934143,352,4.337
326,378.77781414985657,350,4.336
327,379.9677686691284,349,4.334
328,381.1498210430145,350,4.333
329,382.26783180236816,349,4.333
330,383.4138112068176,349,4.333
331,384.54873919487,349,4.332
332,385.75381565093994,349,4.332
333,386.96474146842957,350,4.331
334,388.1377787590027,351,4.331
335,389.2607800960541,348,4.329
336,390.3987646102905,351,4.329
337,391.56976342201233,345,4.328
338,392.7827572822571,349,4.327
339,393.90778160095215,351,4.326
340,395.05873942375183,349,4.326
341,396.18090867996216,348,4.326
342,397.3157079219818,9,4.325
343,398.4608356952667,348,4.324
344,399.6096668243408,350,4.323
345,400.7353332042694,349,4.322
346,401.88561630249023,347,4.321
347,403.03362822532654,349,4.321
348,404.256564617157,351,4.32
349,405.38060212135315,344,4.319
350,406.5196228027344,345,4.318
351,407.6575162410736,350,4.318
352,408.8096830844879,347,4.316
353,409.9466698169708,348,4.315
355,412.07120990753174,353,4.314
356,413.24966979026794,350,4.314
357,414.45564460754395,349,4.314
358,415.63167357444763,344,4.312
359,416.7767004966736,347,4.312
360,417.9876983165741,347,4.31
361,419.11670112609863,347,4.309
362,420.2916667461395,346,4.309
363,421.42767357826233,346,4.308
364,422.56360626220703,344,4.307
365,423.7006096839905,349,4.307
366,424.90961503982544,351,4.307
367,426.0646119117737,342,4.305
368,427.1885325908661,346,4.305
369,428.3255136013031,346,4.304
370,429.46347665786743,346,4.303
371,430.63261103630066,341,4.301
372,431.8106288909912,349,4.301
373,432.9446403980255,346,4.301
374,434.0804777145386,346,4.301
375,435.21356773376465,345,4.299
376,436.4125256538391,343,4.298
378,438.57777070999146,344,4.298
379,439.7593996524811,344,4.296
380,440.887423992157,343,4.296
381,442.0434248447418,348,4.295
382,443.2434296607971,344,4.295
383,444.4473526477814,344,4.293
384,445.5984408855438,346,4.293
385,446.7375588417053,343,4.292
386,447.8665463924408,343,4.289
387,449.05553698539734,344,4.29
388,450.20055961608887,343,4.29
389,451.330527305603,342,4.288
390,452.4895088672638,342,4.288
391,453.6385202407837,341,4.287
392,454.775456905365,343,4.287
393,455.96650767326355,343,4.286
394,457.16750597953796,343,4.284
395,458.33242201805115,339,4.284
396,459.4504508972168,347,4.283
397,460.59947776794434,343,4.283
398,461.73647904396057,341,4.283
399,462.85944390296936,346,4.282
400,464.00139594078064,342,4.281
401,465.1164438724518,342,4.28
402,466.25348591804504,342,4.279
403,467.4064817428589,340,4.279
404,468.5294485092163,342,4.279
405,469.64242339134216,342,4.278
406,470.8674376010895,346,4.277
407,472.0504415035248,343,4.274
408,473.21146035194397,342,4.274
410,475.3270523548126,342,4.271
411,476.5074052810669,342,4.271
412,477.6624195575714,341,4.271
413,478.80531668663025,339,4.271
414,479.9432830810547,340,4.271
415,481.09230756759644,341,4.27
416,482.2923119068146,340,4.269
417,483.4173393249512,342,4.268
418,484.56813764572144,340,4.268
419,485.70737648010254,341,4.267
420,486.8303647041321,337,4.266
421,487.9602975845337,340,4.265
422,489.1163203716278,339,4.264
423,490.25637221336365,341,4.263
424,491.4443643093109,345,4.263
425,492.62934708595276,339,4.26
426,493.83724427223206,340,4.26
427,495.0192904472351,339,4.26
428,496.15332674980164,337,4.26
429,497.3233301639557,340,4.259
430,498.50768971443176,339,4.259
431,499.6962695121765,338,4.258
432,500.8643112182617,336,4.256
433,502.0002956390381,337,4.256
434,503.18332505226135,339,4.255
435,504.308310508728,342,4.254
436,505.42228150367737,338,4.254
437,506.5602469444275,337,4.254
438,507.7091724872589,335,4.253
439,508.9061028957367,339,4.251
440,510.0982356071472,338,4.251
441,511.2802093029022,338,4.251
442,512.445152759552,343,4.249
443,513.5690562725067,338,4.249
444,514.7061078548431,337,4.247
445,515.8450846672058,335,4.247
446,517.0070908069611,336,4.247
447,518.1490662097931,337,4.246
448,519.3721625804901,338,4.245
449,520.4911136627197,338,4.244
450,521.6280672550201,337,4.243
451,522.7660367488861,338,4.243
452,523.9670701026917,342,4.242
453,525.17107629776,336,4.241
454,526.3410148620605,336,4.239
455,527.4650528430939,336,4.239
456,528.599207162857,341,4.239
457,529.7131679058075,337,4.238
458,530.8731389045715,339,4.238
459,532.010176897049,336,4.237
460,533.146012544632,336,4.236
461,534.2649500370026,334,4.235
462,535.3860557079315,336,4.235
463,536.5160493850708,334,4.234
464,537.6670241355896,336,4.233
465,538.8149991035461,335,4.233
466,540.0219671726227,335,4.232
467,541.1629190444946,336,4.231
468,542.300938129425,35,4.231
469,543.4500105381012,335,4.23
470,544.5709631443024,337,4.229
471,545.7279472351074,335,4.228
472,546.8620493412018,332,4.225
473,548.0370886325836,333,4.225
474,549.1801464557648,334,4.225
475,550.3181030750275,331,4.225
476,551.4540691375732,334,4.224
477,552.6360409259796,334,4.223
478,553.7750406265259,329,4.223
479,554.9120552539825,334,4.222
480,556.0950152873993,335,4.221
481,557.2810301780701,332,4.221
482,558.4340689182281,333,4.22
484,560.5702886581421,334,4.218
485,561.7388689517975,334,4.218
488,564.8871047496796,333,4.215
489,566.0049433708191,333,4.215
490,567.1200273036957,332,4.213
491,568.3198373317719,332,4.213
492,569.5028765201569,331,4.213
493,570.6388614177704,330,4.213
494,571.8258922100067,332,4.211
495,573.0338740348816,333,4.21
496,574.1578674316406,330,4.209
497,575.3148593902588,331,4.209
498,576.447850227356,332,4.208
499,577.5858161449432,336,4.207
500,578.7759029865265,331,4.207
501,579.9418003559113,333,4.206
502,581.0808181762695,335,4.205
503,582.2178485393524,331,4.204
505,584.3661050796509,330,4.203
506,585.536771774292,329,4.202
507,586.7098171710968,333,4.2
508,587.87974858284,329,4.2
509,589.0197608470917,333,4.2
512,592.1975166797638,329,4.198
513,593.3949024677277,330,4.197
514,594.546840429306,328,4.196
515,595.7338752746582,330,4.194
516,596.9258530139923,331,4.194
517,598.1488535404205,328,4.194
518,599.265789270401,330,4.194
519,600.4007890224457,325,4.193
520,601.5766813755035,330,4.192
521,602.7097997665405,328,4.191
523,604.8512845039368,328,4.19
524,606.0188345909119,332,4.189
525,607.1577143669128,329,4.188
526,608.3166527748108,330,4.188
527,609.4676632881165,329,4.187
528,610.5926728248596,329,4.186
529,611.7696957588196,325,4.185
530,612.9396827220917,327,4.184
531,614.0907294750214,9,4.183
532,615.2276735305786,329,4.181
533,616.4486804008484,327,4.181
534,617.5676367282867,332,4.181
535,618.7035818099976,329,4.181
536,619.8615865707397,327,4.18
537,620.9986581802368,328,4.178
538,622.1686460971832,328,4.176
539,623.3477578163147,324,4.177
540,624.4826319217682,327,4.177
541,625.6166563034058,327,4.176
542,626.7647264003754,332,4.176
543,627.920645236969,327,4.175
544,629.0737264156342,329,4.174
545,630.1967084407806,327,4.173
546,631.335679769516,320,4.173
547,632.4856767654419,327,4.172
548,633.6117384433746,328,4.171
549,634.7957303524017,330,4.17
550,635.9336807727814,326,4.17
551,637.0516448020935,322,4.169
552,638.2576463222504,326,4.168
553,639.4096345901489,323,4.167
554,640.5476725101471,326,4.166
555,641.6806585788727,325,4.166
556,642.8096654415131,325,4.166
557,643.9916331768036,326,4.165
558,645.196694612503,329,4.164
559,646.3185913562775,25,4.163
560,647.4746417999268,326,4.163
561,648.5946319103241,325,4.162
562,649.7315850257874,326,4.16
563,650.8956367969513,330,4.158
564,652.0386159420013,325,4.158
565,653.1796236038208,321,4.158
566,654.3276190757751,324,4.158
567,655.4476006031036,320,4.157
568,656.6646449565887,327,4.156
569,657.7894821166992,324,4.154
570,658.9556033611298,320,4.154
571,660.1375420093536,323,4.154
572,661.2555358409882,322,4.153
573,662.4034571647644,323,4.153
574,663.5254244804382,323,4.151
575,664.6614282131195,322,4.151
576,665.7973926067352,3,4.15
577,666.997555732727,317,4.149
578,668.1625649929047,323,4.148
579,669.3704423904419,321,4.147
580,670.5205380916595,320,4.147
583,673.7284026145935,321,4.145
584,674.8564445972443,321,4.144
585,675.994375705719,322,4.143
586,677.1404094696045,322,4.143
587,678.2895078659058,323,4.142
588,679.4568219184875,323,4.141
589,680.6583471298218,21,4.14
590,681.8093559741974,321,4.14
591,682.9443936347961,321,4.139
592,684.1484198570251,320,4.138
593,685.3212904930115,323,4.138
594,686.5192937850952,322,4.137
595,687.6684880256653,321,4.136
596,688.8094549179077,324,4.135
597,689.9463646411896,319,4.134
598,691.0703330039978,326,4.133
599,692.2563080787659,322,4.133
600,693.37633061409,320,4.132
601,694.5784261226654,320,4.132
602,695.7893812656403,319,4.131
603,696.9513733386993,323,4.13
604,698.1534214019775,320,4.129
605,699.334371805191,0,4.129
606,700.4583532810211,319,4.128
607,701.610344171524,319,4.127
608,702.7343556880951,319,4.126
609,703.8713541030884,320,4.125
610,705.0233662128448,319,4.124
611,706.1614050865173,1,4.124
612,707.2843339443207,319,4.122
613,708.4483206272125,318,4.122
614,709.5673613548279,319,4.122
615,710.7003517150879,318,4.119
616,711.8433465957642,319,4.119
617,712.9603066444397,321,4.119
618,714.1103391647339,318,4.119
619,715.2643218040466,318,4.117
620,716.4033198356628,315,4.116
621,717.5333514213562,319,4.116
622,718.7681360244751,314,4.115
623,719.8922784328461,319,4.114
624,721.0332548618317,316,4.114
625,722.1773002147675,317,4.113
626,723.3412594795227,319,4.111
627,724.509229183197,317,4.111
628,725.700138092041,320,4.11
629,726.8472621440887,8,4.11
630,728.007269859314,311,4.109
631,729.1891987323761,317,4.109
632,730.412296295166,316,4.109
633,731.5342586040497,316,4.109
634,732.6773114204407,316,4.108
635,733.8002233505249,318,4.108
636,734.9331619739532,317,4.105
637,736.0632367134094,317,4.105
638,737.2122116088867,317,4.105
639,738.3851811885834,318,4.105
640,739.520222902298,317,4.105
