loop,time,pressure
0,0.10239720344543457,276
1,2.4727470874786377,275
4,5.479198932647705,276
5,6.482020378112793,77
6,7.485030174255371,7
7,8.487243413925171,7
9,10.492119550704956,277
10,11.49522089958191,276
11,12.49807095527649,275
12,13.500024557113647,77
13,14.5032217502594,76
14,15.506246328353882,7
15,16.509119272232056,276
16,17.51184368133545,273
17,18.513648748397827,275
18,19.516038179397583,275
19,20.51832413673401,276
20,21.521112203598022,277
21,22.524177312850952,276
22,23.52679944038391,275
23,24.528974533081055,276
24,25.53175115585327,276
25,26.54024648666382,275
26,27.54361867904663,73
27,28.546682357788086,76
28,29.548703908920288,6
29,30.55159640312195,4
31,32.557127237319946,275
32,33.55997657775879,276
33,34.5617299079895,77
34,35.56425070762634,75
35,36.5673611164093,274
36,37.569692850112915,277
37,38.57228970527649,276
38,39.57466101646423,274
39,40.57694935798645,274
40,41.580105781555176,275
41,42.58293104171753,276
42,43.58613157272339,274
43,44.589186906814575,276
44,45.592071294784546,276
45,46.59409189224243,274
46,47.597511768341064,276
47,48.59946155548096,276
48,49.601940631866455,274
49,50.60511326789856,275
50,51.60845708847046,276
51,52.61101007461548,274
52,53.61303973197937,274
53,54.615838050842285,276
54,55.618611574172974,275
55,56.62233781814575,275
56,57.62507653236389,277
57,58.62824630737305,275
58,59.63114380836487,274
59,60.634119749069214,273
60,61.63674592971802,274
61,62.63901662826538,276
62,63.64213180541992,274
63,64.6452465057373,275
64,65.64835476875305,274
65,66.65057802200317,273
66,67.65314102172852,273
67,68.65531730651855,275
68,69.65851664543152,275
69,70.66093230247498,275
70,71.66426110267639,274
71,72.66680693626404,275
72,73.67019701004028,273
73,74.6723382472992,275
74,75.67545819282532,277
75,76.6781702041626,276
76,77.68148946762085,274
77,78.68420171737671,276
78,79.68655323982239,273
79,80.68966603279114,274
80,81.69309687614441,275
81,82.69554424285889,274
82,83.7011296749115,275
83,84.7034285068512,274
84,85.70638656616211,275
85,86.70898509025574,276
86,87.71213245391846,274
87,88.71543407440186,274
88,89.71815919876099,274
89,90.72086310386658,275
90,91.72410178184509,275
91,92.72684144973755,274
92,93.72948980331421,274
93,94.7327811717987,273
94,95.73487854003906,274
95,96.73765134811401,273
96,97.74018597602844,274
97,98.743093252182,274
98,99.74586153030396,274
99,100.74821925163269,275
100,101.75062799453735,274
101,102.75311064720154,275
102,103.75633955001831,273
103,104.759028673172,273
104,105.76233983039856,276
105,106.76523613929749,273
106,107.76723837852478,273
107,108.77068591117859,272
108,109.77311038970947,276
109,110.77658987045288,273
110,111.7795717716217,275
111,112.78258538246155,272
112,113.78536295890808,274
113,114.78805208206177,274
114,115.79063725471497,275
115,116.79323315620422,273
116,117.79627394676208,275
117,118.79823660850525,272
118,119.80004954338074,276
119,120.80254983901978,274
120,121.80553436279297,274
121,122.80784010887146,273
122,123.81021213531494,274
123,124.81316328048706,274
124,125.81503438949585,276
125,126.81928610801697,273
126,127.82133913040161,275
127,128.82446908950806,274
128,129.82685351371765,275
129,130.82973289489746,273
130,131.83305382728577,275
131,132.83597040176392,272
132,133.83816766738892,275
133,134.8414123058319,274
134,135.84431171417236,274
135,136.84633088111877,272
136,137.8489475250244,274
137,138.85207962989807,274
138,139.85539746284485,272
139,140.8580424785614,275
140,141.8615427017212,274
141,142.86458611488342,273
142,143.86744904518127,273
143,144.87080097198486,271
144,145.87302470207214,274
145,146.87563467025757,272
146,147.87826919555664,274
147,148.8806436061859,273
148,149.8832070827484,273
149,150.8860900402069,276
150,151.8893699645996,273
151,152.89185762405396,275
152,153.8938865661621,272
153,154.897629737854,275
154,155.90023803710938,274
155,156.9025604724884,273
156,157.9063367843628,273
157,158.90961742401123,274
158,159.9126114845276,274
159,160.91520810127258,273
160,161.91761016845703,272
161,162.9203543663025,274
162,163.9229757785797,274
163,164.92531275749207,273
164,165.92818450927734,273
165,166.9312026500702,273
166,167.93395924568176,274
167,168.936199426651,274
168,169.9394335746765,272
169,170.94141173362732,273
170,171.94344425201416,273
171,172.94597911834717,272
172,173.94819927215576,272
173,174.95084929466248,274
174,175.9541893005371,272
175,176.95769453048706,272
176,177.9608314037323,274
177,178.96378660202026,273
178,179.96687960624695,272
179,180.96869683265686,273
180,181.97178626060486,272
181,182.97457361221313,273
182,183.97722840309143,273
183,184.97997879981995,272
184,185.98240447044373,272
185,186.98591136932373,274
186,187.98849248886108,273
187,188.99080538749695,272
188,189.9936203956604,273
189,190.99687504768372,271
190,191.99965929985046,271
191,193.00238585472107,272
192,194.00562977790833,273
193,195.00893187522888,273
194,196.0118329524994,272
195,197.01455855369568,272
196,198.01908612251282,271
197,199.0234842300415,272
198,200.02687883377075,271
199,201.03006529808044,271
200,202.03336548805237,273
201,203.0360541343689,272
202,204.039479970932,272
203,205.04212832450867,272
204,206.04510498046875,271
205,207.04825949668884,271
206,208.05017733573914,272
207,209.05305218696594,271
208,210.0554394721985,272
209,211.0585925579071,272
210,212.06076836585999,272
211,213.0643916130066,272
212,214.06643390655518,270
213,215.06962180137634,271
214,216.07338070869446,274
215,217.07619404792786,270
216,218.08009004592896,271
217,219.08210825920105,271
218,220.08546137809753,273
219,221.08944129943848,272
220,222.09306120872498,270
221,223.0951807498932,271
222,224.09796237945557,272
223,225.1008791923523,273
224,226.1037573814392,272
225,227.10632491111755,271
226,228.1088626384735,272
227,229.1112859249115,273
228,230.11418342590332,270
229,231.1172797679901,270
230,232.11976218223572,272
231,233.1222071647644,271
232,234.12480807304382,271
233,235.12786388397217,273
234,236.13056230545044,271
235,237.13363909721375,271
236,238.1367588043213,271
237,239.1392114162445,272
238,240.14188146591187,274
239,241.1447012424469,271
240,242.1654007434845,270
241,243.17019319534302,272
242,244.17377066612244,271
243,245.17693066596985,272
244,246.17908024787903,72
245,247.18238759040833,271
246,248.1850905418396,270
247,249.18715572357178,272
248,250.19037008285522,273
249,251.1931471824646,272
250,252.19531655311584,270
251,253.19748663902283,272
252,254.20098972320557,271
253,255.20317578315735,270
254,256.2054636478424,271
255,257.2084128856659,271
256,258.21098732948303,272
257,259.21391773223877,273
258,260.2165296077728,272
259,261.21848821640015,273
260,262.22147011756897,271
261,263.2246890068054,271
262,264.2269494533539,270
263,265.23020362854004,271
264,266.2331132888794,271
265,267.23643016815186,272
266,268.2391879558563,271
267,269.2413110733032,271
268,270.24402236938477,271
269,271.2464063167572,271
270,272.24890661239624,272
271,273.25104117393494,271
272,274.25395584106445,270
273,275.2565541267395,272
274,276.2591276168823,270
275,277.2623038291931,270
276,278.26501393318176,272
277,279.26780796051025,271
278,280.2710654735565,271
279,281.2730875015259,273
280,282.2762174606323,272
281,283.27936482429504,270
282,284.2821116447449,271
283,285.285521030426,271
284,286.28818678855896,270
285,287.2912483215332,270
286,288.2938883304596,272
287,289.2960979938507,271
288,290.2997179031372,272
289,291.3020169734955,271
290,292.3038492202759,271
291,293.30689096450806,271
292,294.31017899513245,272
293,295.3126163482666,271
294,296.3145875930786,272
295,297.3183927536011,271
296,298.32127833366394,269
297,299.32340264320374,271
298,300.3270733356476,271
299,301.33075761795044,270
300,302.3340780735016,271
301,303.337509393692,270
302,304.34016513824463,270
303,305.3428523540497,269
304,306.34530782699585,271
305,307.3474724292755,272
306,308.35033345222473,271
307,309.3527419567108,271
308,310.3553898334503,271
309,311.3587017059326,271
310,312.36118245124817,270
311,313.36415457725525,270
312,314.3674190044403,270
313,315.36990761756897,271
314,316.3720953464508,271
315,317.37513518333435,269
316,318.3779830932617,270
317,319.3806161880493,270
318,320.38649106025696,271
319,321.3905165195465,271
320,322.393718957901,270
321,323.39652276039124,271
322,324.3986773490906,271
323,325.4004762172699,271
324,326.4034090042114,270
325,327.40587282180786,269
326,328.4085781574249,272
327,329.4120945930481,270
328,330.4154064655304,271
329,331.4181294441223,270
330,332.4205219745636,270
331,333.4235351085663,269
332,334.42632722854614,271
333,335.42921805381775,270
334,336.43205070495605,270
335,337.4347243309021,271
336,338.4377052783966,270
337,339.4408528804779,269
338,340.4440870285034,271
339,341.44602704048157,271
340,342.4485991001129,271
341,343.4509377479553,270
342,344.4527590274811,271
343,345.45560359954834,271
344,346.4580490589142,269
345,347.45991587638855,271
346,348.462651014328,269
347,349.46453762054443,270
348,350.4708197116852,269
349,351.47413539886475,270
350,352.4769718647003,268
351,353.4800658226013,269
352,354.4824676513672,270
353,355.48545002937317,271
354,356.4877862930298,269
355,357.4908938407898,270
356,358.4934389591217,270
357,359.49629759788513,271
358,360.49946641921997,269
359,361.5029890537262,269
360,362.50628185272217,270
361,363.5089032649994,269
362,364.5118365287781,270
363,365.5141806602478,271
364,366.51688170433044,269
365,367.51986503601074,271
366,368.5296392440796,271
367,369.5328154563904,270
368,370.5358805656433,270
369,371.5388653278351,269
370,372.5415735244751,269
371,373.5444915294647,271
372,374.54655170440674,271
373,375.5487937927246,270
374,376.55208945274353,269
375,377.55418968200684,270
376,378.5571346282959,268
377,379.56037950515747,269
378,380.5638589859009,271
379,381.5666596889496,270
380,382.56929779052734,271
381,383.57115054130554,270
382,384.5735065937042,268
383,385.5764694213867,271
384,386.57989501953125,269
385,387.58316826820374,270
386,388.5858299732208,270
387,389.58841156959534,269
388,390.5904116630554,271
389,391.59382915496826,270
390,392.5970387458801,269
391,393.5992362499237,269
392,394.60193634033203,270
393,395.60546708106995,271
394,396.60931873321533,271
395,397.6127243041992,269
396,398.6148819923401,269
397,399.6172339916229,273
398,400.6208219528198,270
399,401.6233937740326,270
400,402.62588453292847,268
401,403.6280834674835,269
402,404.63031363487244,271
403,405.63224267959595,269
404,406.6340730190277,269
405,407.6372661590576,270
406,408.63974618911743,270
407,409.6420645713806,268
408,410.64513421058655,269
409,411.64835262298584,270
410,412.65084648132324,269
411,413.6527142524719,269
412,414.65574049949646,270
413,415.65825486183167,269
414,416.6610789299011,269
415,417.66380620002747,271
416,418.667090177536,271
417,419.6704947948456,270
418,420.67317247390747,269
419,421.67641377449036,271
420,422.67886567115784,270
421,423.68101239204407,268
422,424.6836860179901,272
423,425.68610405921936,269
424,426.688517332077,270
425,427.69026923179626,269
426,428.6924319267273,270
427,429.69592237472534,269
428,430.69944310188293,268
429,431.7021038532257,271
430,432.70509004592896,269
431,433.70796298980713,269
432,434.71161222457886,270
433,435.71439909935,269
434,436.7180030345917,269
435,437.7205138206482,270
436,438.7227861881256,269
437,439.72625374794006,268
438,440.7294189929962,271
439,441.7323033809662,269
440,442.7354176044464,270
441,443.7383213043213,270
442,444.74097180366516,269
443,445.7434539794922,271
444,446.7460460662842,268
445,447.7499074935913,269
446,448.75304532051086,271
447,449.7554681301117,269
448,450.75828742980957,269
449,451.761132478714,271
450,452.7634279727936,270
451,453.76595735549927,270
452,454.7693326473236,270
453,455.7724027633667,270
454,456.7754547595978,269
455,457.77804136276245,269
456,458.78157210350037,272
457,459.7845871448517,272
458,460.78820157051086,270
459,461.79043316841125,272
460,462.7928910255432,271
461,463.7952387332916,269
462,464.79768538475037,271
463,465.8011636734009,270
464,466.80418491363525,270
465,467.8071618080139,271
466,468.80971336364746,269
467,469.8126199245453,270
468,470.8151624202728,270
469,471.8184678554535,271
470,472.82143807411194,270
471,473.82481575012207,271
472,474.8271768093109,270
473,475.83023381233215,271
474,476.83311557769775,269
475,477.83533453941345,268
476,478.8381233215332,271
477,479.8405327796936,269
478,480.84334421157837,271
479,481.8460795879364,269
480,482.8486170768738,270
481,483.85083079338074,269
482,484.8535439968109,271
483,485.858056306839,270
484,486.8604528903961,270
485,487.86251187324524,269
486,488.8652777671814,271
487,489.86721992492676,270
488,490.8690986633301,269
489,491.8720009326935,271
490,492.8745858669281,269
491,493.87728357315063,270
492,494.88216185569763,272
493,495.8844289779663,272
494,496.8871247768402,271
495,497.8903067111969,269
496,498.89348435401917,271
497,499.89599323272705,269
498,500.89869689941406,269
499,501.9006235599518,269
500,502.90373969078064,270
501,503.9070053100586,270
502,504.9095997810364,271
503,505.9122211933136,270
504,506.91444182395935,269
505,507.918096780777,270
506,508.9223790168762,270
507,509.92498111724854,269
508,510.9272880554199,270
509,511.92957520484924,271
510,512.9329841136932,270
511,513.9346907138824,270
512,514.9373953342438,268
513,515.9407262802124,270
514,516.9431538581848,269
515,517.9457077980042,271
516,518.9489800930023,269
517,519.9508874416351,270
518,520.9532239437103,269
519,521.955096244812,269
520,522.9580392837524,270
521,523.9609723091125,269
522,524.9633595943451,269
523,525.9660177230835,270
524,526.9692304134369,269
525,527.9718036651611,269
526,528.974240064621,268
527,529.9770066738129,269
528,530.9800496101379,269
529,531.9829382896423,269
530,532.9858410358429,270
531,533.9879841804504,269
532,534.9900226593018,269
533,535.992329120636,269
534,536.9943327903748,268
535,537.9974586963654,269
536,539.0005979537964,269
537,540.0031135082245,269
538,541.0056958198547,268
539,542.0086097717285,269
540,543.0117001533508,270
541,544.014976978302,269
542,545.0183925628662,267
543,546.0208857059479,268
544,547.0240128040314,267
545,548.0272340774536,269
546,549.0293707847595,270
547,550.0324335098267,268
548,551.0344135761261,270
549,552.0376992225647,268
550,553.0402545928955,270
551,554.0434057712555,269
552,555.0459122657776,270
553,556.0484182834625,269
554,557.0521368980408,269
555,558.0548150539398,268
556,559.0584464073181,270
557,560.0615105628967,269
558,561.0641086101532,268
559,562.0664718151093,269
560,563.0692844390869,270
561,564.0717625617981,270
562,565.074520111084,267
563,566.0763604640961,269
564,567.0780220031738,270
565,568.0815362930298,267
566,569.0834047794342,268
567,570.0872533321381,270
568,571.0901319980621,269
569,572.0931987762451,269
570,573.0957851409912,268
571,574.0991566181183,267
572,575.1014351844788,268
573,576.1047070026398,270
574,577.1068594455719,267
575,578.1099746227264,268
576,579.1128468513489,270
577,580.1154289245605,268
578,581.1181042194366,269
579,582.1211309432983,268
580,583.123872756958,268
581,584.1262495517731,266
582,585.128401517868,268
583,586.1319258213043,269
584,587.1349966526031,269
585,588.1383762359619,267
586,589.1413645744324,268
587,590.1444056034088,269
588,591.1468873023987,268
589,592.1496407985687,268
590,593.152542591095,267
591,594.155177116394,270
592,595.1575138568878,269
593,596.1602699756622,268
594,597.1636152267456,269
595,598.1668276786804,268
596,599.1696789264679,268
597,600.1724035739899,268
598,601.1751375198364,268
599,602.1772785186768,269
600,603.1804740428925,270
601,604.1832201480865,267
602,605.1861479282379,267
603,606.1881484985352,268
604,607.1900050640106,268
605,608.1924419403076,269
606,609.1949796676636,267
607,610.1979203224182,267
608,611.2006304264069,268
609,612.2037100791931,269
610,613.2058277130127,268
611,614.2077527046204,268
612,615.2099771499634,268
613,616.2131419181824,267
614,617.2158062458038,267
615,618.2180800437927,266
616,619.2206065654755,266
617,620.223582983017,267
618,621.2262041568756,268
619,622.2292516231537,268
620,623.2323279380798,268
621,624.2345626354218,265
622,625.2364845275879,266
623,626.238706111908,269
624,627.2409427165985,268
625,628.2442231178284,268
626,629.2471032142639,269
627,630.2497599124908,266
628,631.2530257701874,266
629,632.2550029754639,267
630,633.2577176094055,267
631,634.2597291469574,268
632,635.2624955177307,267
633,636.2649395465851,266
634,637.268413066864,266
635,638.271945476532,266
636,639.275398015976,269
637,640.2781400680542,267
638,641.2811939716339,269
639,642.2844293117523,266
640,643.2885422706604,268
641,644.2905411720276,266
642,645.2929329872131,267
643,646.2962913513184,267
644,647.2989509105682,267
645,648.3017289638519,267
646,649.3048048019409,267
647,650.3077418804169,267
648,651.3106741905212,268
649,652.3128142356873,269
650,653.3153502941132,267
651,654.3189842700958,267
652,655.3221325874329,266
653,656.3247420787811,266
654,657.3270118236542,266
655,658.3296523094177,267
656,659.3322494029999,266
657,660.334798336029,266
658,661.3373498916626,266
659,662.3397777080536,268
660,663.3421037197113,268
661,664.3450126647949,266
662,665.3480055332184,266
663,666.3512432575226,266
664,667.3542537689209,267
665,668.3569905757904,266
666,669.359513759613,266
667,670.3624408245087,267
668,671.3649225234985,266
669,672.3675346374512,265
670,673.3707962036133,266
671,674.3723664283752,267
672,675.374046087265,266
673,676.3768181800842,266
674,677.3801536560059,268
675,678.3835780620575,267
676,679.3860275745392,267
677,680.3884179592133,266
678,681.3911650180817,267
679,682.3942995071411,267
680,683.3969767093658,266
681,684.3989586830139,266
682,685.4021027088165,265
683,686.4047830104828,266
684,687.4077534675598,267
685,688.4103927612305,267
686,689.4133658409119,267
687,690.4160945415497,266
688,691.4189143180847,266
689,692.4217405319214,266
690,693.424213886261,267
691,694.4272305965424,266
692,695.4291038513184,267
693,696.4326639175415,265
694,697.435985326767,267
695,698.4382016658783,266
696,699.4409046173096,267
697,700.4434497356415,265
698,701.4479360580444,265
699,702.4507784843445,265
700,703.4540519714355,266
701,704.4576485157013,267
702,705.460949420929,265
703,706.4634902477264,266
704,707.4660973548889,268
705,708.4686849117279,267
706,709.4711537361145,265
707,710.473934173584,265
708,711.4766244888306,266
709,712.4802885055542,265
710,713.4841442108154,265
711,714.487233877182,267
712,715.4904081821442,267
713,716.493091583252,266
714,717.4952974319458,265
715,718.4987168312073,267
716,719.5013506412506,265
717,720.5038056373596,266
718,721.5068309307098,267
719,722.5098781585693,267
720,723.5123331546783,266
721,724.5147097110748,266
722,725.5173771381378,265
723,726.5200021266937,265
724,727.5232403278351,266
725,728.5262401103973,266
726,729.5283002853394,265
727,730.5310249328613,266
728,731.5333061218262,267
729,732.5360193252563,265
730,733.5392670631409,265
731,734.5420200824738,265
732,735.5444610118866,264
733,736.5473916530609,265
734,737.5504169464111,266
735,738.5531704425812,267
736,739.5562520027161,267
737,740.5588154792786,265
738,741.56090092659,265
739,742.5634667873383,265
740,743.5652756690979,265
