loop,time,pressure
0,0.10199713706970215,256
1,2.46966814994812,6
3,4.472870588302612,258
4,5.475660800933838,257
5,6.477330446243286,56
6,7.479646682739258,56
7,8.481843709945679,258
8,9.483104228973389,256
9,10.48521375656128,254
10,11.48625373840332,255
11,12.487346887588501,255
12,13.48951268196106,256
13,14.491088390350342,254
14,15.493225336074829,254
15,16.495290279388428,253
16,17.496867656707764,255
17,18.498456239700317,254
18,19.500566244125366,254
19,20.50283646583557,252
20,21.504902124404907,252
21,22.507424354553223,255
22,23.50954508781433,252
23,24.511099100112915,253
24,25.513204097747803,252
25,26.51442003250122,251
26,27.5158748626709,251
27,28.517772912979126,249
28,29.51947569847107,250
29,30.52054476737976,250
30,31.522385120391846,251
31,32.52467966079712,251
32,33.527400970458984,248
33,34.529988527297974,250
34,35.5323691368103,249
35,36.5335807800293,250
36,37.535632848739624,249
37,38.53772759437561,248
38,39.53964376449585,248
39,40.54246497154236,248
40,41.543625354766846,248
41,42.54510021209717,249
42,43.54739022254944,247
43,44.54945206642151,248
44,45.552451372146606,246
45,46.553499698638916,248
46,47.5554256439209,247
47,48.557926177978516,247
48,49.559638023376465,245
49,50.56119251251221,250
50,51.56237077713013,245
51,52.56416583061218,247
52,53.566128969192505,246
53,54.56759071350098,247
54,55.56934571266174,247
55,56.571383476257324,246
56,57.57333183288574,244
57,58.576425075531006,248
58,59.57818579673767,246
59,60.580519676208496,247
60,61.58245778083801,245
61,62.58500361442566,246
62,63.5873589515686,245
63,64.58943700790405,247
64,65.59217882156372,249
65,66.59447121620178,246
66,67.59635734558105,246
67,68.597580909729,246
68,69.60038471221924,246
69,70.6016755104065,248
70,71.60432434082031,245
71,72.60640931129456,249
72,73.60844326019287,245
73,74.60949873924255,246
74,75.61139011383057,245
75,76.61344194412231,247
76,77.61541032791138,245
77,78.61746621131897,248
78,79.61883664131165,247
79,80.62048554420471,247
80,81.6227490901947,244
81,82.62437772750854,245
82,83.62643575668335,245
83,84.62843465805054,244
84,85.63036012649536,246
85,86.6333556175232,245
86,87.63546919822693,245
87,88.6369309425354,244
88,89.63945889472961,246
89,90.64133262634277,244
90,91.642507314682,247
91,92.6445779800415,244
92,93.6459321975708,246
93,94.6484727859497,244
94,95.65049886703491,246
95,96.65275239944458,245
96,97.65443420410156,244
97,98.65633392333984,244
98,99.65833616256714,245
99,100.66043472290039,244
100,101.66229248046875,245
101,102.66440320014954,244
102,103.66566705703735,247
103,104.66822934150696,243
104,105.66975545883179,245
105,106.67116403579712,244
106,107.67317128181458,247
107,108.67501330375671,244
108,109.67735695838928,244
110,111.68078398704529,244
111,112.68262434005737,46
112,113.68446660041809,3
114,115.68843817710876,246
115,116.69042134284973,244
116,117.69249868392944,245
117,118.69390153884888,244
118,119.69635057449341,245
119,120.69835376739502,243
120,121.6994616985321,245
121,122.70053267478943,245
122,123.7024736404419,244
123,124.70381045341492,244
124,125.70642304420471,244
125,126.70838689804077,242
126,127.70926094055176,244
127,128.7118582725525,242
128,129.71374821662903,243
129,130.7164487838745,243
130,131.717520236969,242
131,132.7203710079193,243
132,133.72214794158936,244
133,134.72446727752686,243
134,135.72647833824158,244
135,136.7276268005371,244
136,137.73010849952698,243
137,138.73149275779724,243
138,139.73347306251526,245
139,140.7360064983368,242
140,141.73770022392273,242
141,142.74042463302612,242
142,143.74242329597473,243
143,144.74452185630798,243
144,145.74651741981506,243
145,146.74833273887634,244
146,147.75072169303894,242
147,148.7528476715088,243
148,149.75538802146912,244
149,150.75644373893738,242
150,151.7593264579773,242
151,152.7604706287384,242
152,153.76236653327942,243
153,154.76452112197876,244
154,155.76653146743774,243
155,156.76826357841492,242
156,157.77027368545532,242
157,158.77140378952026,243
158,159.77321481704712,241
159,160.77519941329956,243
160,161.77791047096252,241
161,162.77944779396057,244
162,163.78143572807312,244
163,164.78370666503906,241
164,165.78535914421082,242
165,166.78799867630005,242
166,167.79046154022217,242
167,168.79177737236023,244
168,169.7933316230774,241
169,170.79533457756042,241
170,171.79745984077454,240
171,172.79949498176575,243
172,173.80239391326904,242
173,174.80436182022095,242
174,175.80638194084167,241
175,176.80844807624817,242
176,177.8105754852295,240
177,178.81243109703064,241
178,179.81374740600586,242
179,180.81643843650818,241
180,181.81746554374695,243
181,182.81935262680054,243
182,183.82128810882568,240
183,184.82337141036987,240
184,185.82561612129211,240
185,186.82770919799805,240
186,187.82959723472595,241
187,188.832261800766,240
188,189.83409643173218,240
189,190.83546590805054,240
190,191.8374695777893,240
191,192.8388967514038,239
192,193.84092330932617,241
193,194.84335446357727,241
194,195.84600567817688,240
195,196.84784030914307,242
196,197.84983086585999,241
197,198.85196113586426,241
198,199.85469341278076,240
199,200.85638451576233,240
200,201.858332157135,242
201,202.86045956611633,239
202,203.86241149902344,240
203,204.8640158176422,239
204,205.86535930633545,238
205,206.8664312362671,239
206,207.86832880973816,238
207,208.87070894241333,241
208,209.87302446365356,238
209,210.87566018104553,240
210,211.87839937210083,239
211,212.87966585159302,238
212,213.88218760490417,239
213,214.88433408737183,240
214,215.88614988327026,239
215,216.88839769363403,237
216,217.89047265052795,238
217,218.89219188690186,239
218,219.8944923877716,238
219,220.89552855491638,238
220,221.8968551158905,239
222,223.90143394470215,238
223,224.90334272384644,240
224,225.9070599079132,239
225,226.90944957733154,9
227,228.91257786750793,239
228,229.91449213027954,239
229,230.91640520095825,39
230,231.9184012413025,239
231,232.92013120651245,238
232,233.92246794700623,237
233,234.92541027069092,238
234,235.92708945274353,238
235,236.92964458465576,239
236,237.93146467208862,238
237,238.93345880508423,237
238,239.93547439575195,238
239,240.9379584789276,238
240,241.94002437591553,238
241,242.94229412078857,240
242,243.9442970752716,238
243,244.94643712043762,236
244,245.94848918914795,238
245,246.9504599571228,237
246,247.95243668556213,238
247,248.95350217819214,237
248,249.95552253723145,237
249,250.95740246772766,239
250,251.95944046974182,239
251,252.9614098072052,238
252,253.9622712135315,237
253,254.96435642242432,238
254,255.96549439430237,237
255,256.9680926799774,235
256,257.97037148475647,237
257,258.97154450416565,238
258,259.97335147857666,237
259,260.9754047393799,237
260,261.9772789478302,238
261,262.97934579849243,237
262,263.9817781448364,237
263,264.98362827301025,237
264,265.98608779907227,237
265,266.9874815940857,237
266,267.9889860153198,237
267,268.9908814430237,239
268,269.99242520332336,239
269,270.99358010292053,236
270,271.9945778846741,238
271,272.99735856056213,236
272,273.9993951320648,235
273,275.0010721683502,236
274,276.0024003982544,238
275,277.00350737571716,238
276,278.0054590702057,237
277,279.0074245929718,238
278,280.0088984966278,238
279,281.01043581962585,239
280,282.0124361515045,237
281,283.01434445381165,237
282,284.0164575576782,236
283,285.0193314552307,236
284,286.020534992218,235
285,287.0223882198334,237
286,288.02447175979614,238
287,289.0276675224304,235
288,290.02977752685547,237
289,291.03150963783264,234
290,292.0338704586029,235
291,293.0364661216736,237
292,294.0384740829468,235
293,295.0404620170593,236
294,296.0424201488495,235
295,297.0444345474243,236
296,298.04643726348877,238
297,299.0474979877472,237
298,300.0490822792053,237
299,301.05143547058105,237
300,302.05335998535156,236
301,303.0553846359253,235
302,304.0624701976776,238
303,305.0645635128021,236
304,306.06621623039246,237
305,307.0683696269989,235
306,308.07049655914307,235
307,309.0727918148041,234
308,310.07461428642273,236
309,311.0774369239807,235
310,312.07935762405396,235
311,313.081205368042,234
312,314.08290004730225,234
313,315.08438420295715,236
314,316.0863561630249,236
315,317.08836817741394,234
316,318.09056997299194,234
317,319.0925495624542,234
318,320.09421825408936,236
319,321.09685230255127,234
320,322.098961353302,234
321,323.10142970085144,235
322,324.1029007434845,236
323,325.1044747829437,234
324,326.1063325405121,235
325,327.1084530353546,235
326,328.11071133613586,236
327,329.11248755455017,233
328,330.1151530742645,235
329,331.1175317764282,235
330,332.11938285827637,234
331,333.1213638782501,235
332,334.1234600543976,236
333,335.1254389286041,234
334,336.1290965080261,233
335,337.13175535202026,235
336,338.13434410095215,234
337,339.1365249156952,234
338,340.13946509361267,234
339,341.1414496898651,234
340,342.14435267448425,234
341,343.1474165916443,234
342,344.1503002643585,235
343,345.15256118774414,233
344,346.15422654151917,235
345,347.1564335823059,234
346,348.15824818611145,233
347,349.16036581993103,233
348,350.16252279281616,236
349,351.16439986228943,232
350,352.1674315929413,233
353,355.1724228858948,235
354,356.17409324645996,33
355,357.1764347553253,4
356,358.1783311367035,235
357,359.179407119751,233
358,360.1814363002777,232
359,361.1833653450012,234
360,362.1854712963104,233
361,363.1876084804535,233
362,364.1886057853699,235
363,365.1904447078705,232
364,366.19337725639343,234
365,367.19569158554077,233
366,368.198068857193,232
367,369.1994185447693,233
368,370.20093297958374,233
369,371.2024927139282,234
370,372.20443534851074,232
371,373.2053518295288,233
372,374.2082016468048,234
373,375.2102429866791,233
374,376.2124948501587,233
375,377.21443724632263,234
376,378.2163600921631,233
377,379.21850538253784,234
378,380.2203643321991,233
379,381.22239661216736,233
380,382.2243959903717,234
381,383.226441860199,233
382,384.22886753082275,235
383,385.23056626319885,232
384,386.2327160835266,232
385,387.2353320121765,233
386,388.23720955848694,232
387,389.2393572330475,234
388,390.2414608001709,231
389,391.24344873428345,234
390,392.24549293518066,231
391,393.2474467754364,233
392,394.24878120422363,232
393,395.250440120697,231
394,396.25243377685547,231
395,397.253534078598,232
396,398.2553725242615,233
397,399.25733160972595,231
398,400.2595229148865,231
399,401.26134967803955,233
400,402.2634611129761,231
401,403.2650034427643,230
402,404.26742601394653,232
403,405.2685332298279,230
404,406.2704191207886,234
405,407.2727265357971,230
406,408.2734670639038,233
407,409.27537751197815,230
408,410.27745056152344,232
409,411.28035259246826,231
410,412.2823541164398,233
411,413.2834885120392,230
412,414.2854654788971,231
413,415.2873947620392,231
414,416.2894744873047,233
415,417.2906885147095,230
416,418.29212856292725,233
417,419.2944555282593,229
418,420.2956597805023,233
419,421.2977600097656,229
420,422.3003988265991,232
421,423.3014621734619,229
422,424.3043670654297,232
423,425.30645871162415,230
424,426.30849862098694,233
425,427.31126260757446,232
426,428.3134467601776,232
427,429.314998626709,231
428,430.31740164756775,233
429,431.31943559646606,230
430,432.3209738731384,231
431,433.3233222961426,230
432,434.3243546485901,232
433,435.3264727592468,230
434,436.3285255432129,229
435,437.3303897380829,231
436,438.33272790908813,231
437,439.3345696926117,231
438,440.33640933036804,229
439,441.3380722999573,231
440,442.3392572402954,230
441,443.3414213657379,229
442,444.3443863391876,231
443,445.3460817337036,228
444,446.3483555316925,231
445,447.3495047092438,228
446,448.3515033721924,230
447,449.35374546051025,229
448,450.35532808303833,229
449,451.3566925525665,230
450,452.3587119579315,229
451,453.36088824272156,228
452,454.3622999191284,229
453,455.36358737945557,229
454,456.36546301841736,230
455,457.367556810379,230
458,460.37159514427185,228
459,461.37280225753784,29
460,462.3748548030853,231
461,463.3763508796692,228
462,464.3783357143402,229
463,465.3800435066223,228
464,466.3819057941437,228
465,467.38374066352844,228
466,468.3856267929077,227
467,469.3872056007385,227
468,470.38842272758484,227
469,471.39005732536316,228
470,472.39133977890015,228
471,473.39334058761597,229
472,474.3955080509186,229
473,475.3977560997009,226
474,476.39899134635925,227
475,477.4004828929901,228
476,478.4027464389801,228
477,479.40476870536804,226
478,480.4063141345978,227
479,481.407755613327,227
480,482.4093313217163,228
481,483.4115068912506,227
482,484.4133241176605,228
483,485.415326833725,226
484,486.41743779182434,228
485,487.4193868637085,226
486,488.4214332103729,226
487,489.42345452308655,226
488,490.4254801273346,225
489,491.42746353149414,226
490,492.42876958847046,226
491,493.4314625263214,226
492,494.4335060119629,226
493,495.43544125556946,227
494,496.4373800754547,229
495,497.4399628639221,228
496,498.4424560070038,227
497,499.44468665122986,225
498,500.4467782974243,225
499,501.44941091537476,226
500,502.4519007205963,227
501,503.4544370174408,224
502,504.4563946723938,225
503,505.4584596157074,225
504,506.461332321167,226
505,507.4633846282959,225
506,508.4664692878723,225
507,509.46858978271484,224
508,510.47044706344604,226
509,511.47240447998047,226
510,512.4751214981079,225
511,513.47620677948,226
512,514.4785022735596,226
513,515.4804284572601,225
514,516.4823784828186,225
515,517.4844131469727,226
516,518.487019777298,226
517,519.489333152771,227
518,520.4906294345856,225
519,521.4925374984741,225
520,522.4941246509552,226
521,523.4964394569397,226
522,524.4984946250916,224
523,525.5004487037659,226
524,526.5016112327576,226
525,527.5034513473511,224
526,528.5056307315826,226
527,529.5078320503235,227
528,530.5101206302643,225
529,531.5127635002136,225
530,532.5146043300629,226
531,533.5172576904297,225
532,534.5194070339203,226
533,535.5217094421387,225
534,536.524430513382,226
535,537.5263423919678,226
536,538.5284404754639,224
537,539.5296273231506,224
538,540.531417131424,224
539,541.5323197841644,224
540,542.5343384742737,225
541,543.5364632606506,226
542,544.5385353565216,225
543,545.5408179759979,224
544,546.5433897972107,224
545,547.5451173782349,225
546,548.5474724769592,225
547,549.5494842529297,224
548,550.5514392852783,224
549,551.5523445606232,224
550,552.5544610023499,226
551,553.5562026500702,225
552,554.5583562850952,223
553,555.5604364871979,224
554,556.5626051425934,224
555,557.5643787384033,226
556,558.5665380954742,224
557,559.5684597492218,223
558,560.5707695484161,226
559,561.5733382701874,226
560,562.5753769874573,225
561,563.5774657726288,224
562,564.5788140296936,226
563,565.580575466156,225
564,566.5833435058594,224
565,567.5854561328888,224
566,568.5866234302521,225
567,569.5884747505188,225
568,570.590353012085,223
569,571.5928201675415,5
572,574.5993254184723,223
573,575.6014394760132,223
574,576.6041309833527,24
575,577.6061511039734,223
576,578.6083517074585,222
577,579.6103477478027,223
578,580.6115527153015,222
579,581.6136221885681,222
580,582.6154158115387,223
581,583.6165339946747,223
582,584.6194362640381,223
583,585.6214590072632,222
584,586.6224575042725,223
585,587.6239168643951,221
586,588.6273663043976,221
587,589.6286399364471,223
588,590.6310636997223,222
589,591.6334383487701,221
590,592.6351261138916,223
591,593.6378855705261,220
592,594.6404378414154,221
593,595.642338514328,224
594,596.6443514823914,221
595,597.646374464035,222
596,598.6484966278076,221
597,599.6499972343445,221
598,600.6515562534332,221
599,601.6543619632721,222
600,602.6556317806244,221
601,603.6568932533264,221
602,604.659432888031,222
603,605.6617069244385,220
604,606.6634993553162,221
605,607.6663691997528,222
606,608.6687071323395,220
607,609.671028137207,221
608,610.6725409030914,223
609,611.6751446723938,220
610,612.6774673461914,222
611,613.6793832778931,222
612,614.6814296245575,219
613,615.6829068660736,223
614,616.685444355011,220
615,617.6874718666077,222
616,618.690083026886,221
617,619.692013502121,220
618,620.6939141750336,221
619,621.6963810920715,220
620,622.6984443664551,223
621,623.7004361152649,220
622,624.7028875350952,221
623,625.7036962509155,220
624,626.7053322792053,222
625,627.7075524330139,220
626,628.7104365825653,221
627,629.7124869823456,220
628,630.7154698371887,220
629,631.7166895866394,221
630,632.7185509204865,220
631,633.7205481529236,221
632,634.7225921154022,222
633,635.7247107028961,220
634,636.7274219989777,220
635,637.7286124229431,222
636,638.7312633991241,222
637,639.7334258556366,221
638,640.7353184223175,220
639,641.7377307415009,220
640,642.739462852478,220
641,643.7424516677856,221
642,644.7445771694183,219
643,645.746356010437,220
644,646.7472279071808,221
645,647.7485847473145,221
646,648.750406742096,221
647,649.7524263858795,219
648,650.754575252533,221
649,651.7574846744537,220
650,652.7585389614105,220
651,653.7604379653931,221
652,654.7624492645264,221
653,655.7635531425476,219
654,656.7653589248657,223
655,657.7675678730011,219
656,658.7694125175476,220
657,659.7713625431061,222
658,660.7733840942383,221
659,661.7758312225342,221
660,662.7784242630005,220
661,663.7807974815369,221
662,664.783490896225,222
663,665.786456823349,219
664,666.787436246872,221
665,667.7889313697815,220
666,668.7904410362244,222
667,669.7923798561096,221
668,670.793543100357,222
669,671.7954089641571,220
670,672.797435760498,220
671,673.799458026886,222
672,674.8010165691376,220
673,675.8028199672699,221
674,676.8048994541168,220
675,677.8066582679749,220
676,678.8083715438843,220
677,679.8104615211487,220
678,680.813464641571,219
679,681.8151581287384,220
680,682.816440820694,219
681,683.8193559646606,221
682,684.8213713169098,220
683,685.8233482837677,220
684,686.8253707885742,220
685,687.8274600505829,219
686,688.8310034275055,221
689,691.8337509632111,19
690,692.8363575935364,221
691,693.8382375240326,219
692,694.8414571285248,221
693,695.8432283401489,219
694,696.8454146385193,219
695,697.847332239151,221
696,698.8486878871918,219
697,699.8504610061646,220
698,700.8523519039154,218
699,701.8544013500214,220
700,702.8564612865448,219
701,703.8575601577759,219
702,704.8593988418579,220
703,705.8615052700043,219
704,706.8633534908295,218
705,707.8653643131256,219
706,708.867347240448,219
707,709.8698208332062,220
708,710.8716192245483,219
709,711.8744621276855,220
710,712.8763864040375,219
711,713.8784759044647,219
712,714.8814368247986,219
713,715.8827066421509,220
714,716.8854084014893,220
715,717.8875031471252,218
716,718.8893659114838,219
717,719.8914630413055,219
718,720.8934392929077,218
719,721.8955409526825,218
720,722.8965158462524,218
721,723.8984081745148,219
722,724.9003512859344,220
723,725.9023623466492,218
724,726.9034426212311,218
725,727.9053640365601,217
726,728.9074091911316,218
727,729.9085268974304,218
728,730.9105153083801,218
729,731.9124319553375,217
730,732.9144604206085,218
731,733.9163362979889,218
732,734.9183700084686,217
733,735.9204375743866,217
734,736.9227921962738,217
735,737.9253942966461,218
736,738.9274582862854,217
737,739.9288401603699,217
738,740.9314613342285,219
739,741.9334840774536,219
740,742.9344775676727,218
741,743.936488866806,219
742,744.9383728504181,218
743,745.9394402503967,217
744,746.9424936771393,216
745,747.9436132907867,217
746,748.9455196857452,218
747,749.9474699497223,217
748,750.9493701457977,217
749,751.9509525299072,219
