loop,time,pressure
0,0.10244488716125488,291
1,2.4870030879974365,292
2,3.4898006916046143,293
3,4.493465185165405,290
4,5.497102737426758,291
5,6.500777244567871,291
8,9.506680011749268,292
10,11.512163162231445,90
11,12.515084743499756,90
12,13.518476963043213,91
13,14.52151107788086,1
14,15.524007558822632,0
15,16.52687692642212,0
16,17.530842542648315,0
17,18.533238887786865,290
18,19.536083936691284,289
19,20.538572549819946,292
20,21.541271924972534,292
21,22.544727325439453,280
22,23.548364400863647,264
23,24.55097198486328,81
24,25.553273677825928,278
25,26.55779266357422,96
26,27.56043267250061,1
27,28.563635110855103,8
28,29.565810441970825,280
29,30.5688259601593,283
30,31.571320056915283,285
31,32.57331824302673,282
32,33.57527804374695,284
33,34.578468799591064,280
34,35.58113145828247,281
35,36.583616971969604,280
36,37.587037801742554,278
37,38.59011268615723,279
38,39.593520641326904,279
39,40.59565472602844,279
40,41.59823989868164,277
41,42.60067319869995,278
42,43.60275316238403,275
43,44.60609436035156,278
44,45.60936450958252,275
45,46.61177039146423,277
46,47.614213705062866,272
47,48.61680364608765,275
48,49.61921143531799,273
49,50.62259483337402,271
50,51.626201152801514,272
51,52.62887263298035,272
52,53.63211178779602,271
53,54.63533425331116,270
54,55.638012647628784,272
55,56.64026236534119,271
56,57.64367079734802,269
57,58.64674401283264,268
58,59.6490523815155,269
59,60.65209221839905,266
60,61.65404391288757,268
61,62.656564474105835,269
62,63.659833908081055,268
63,64.66305637359619,267
64,65.66629695892334,269
65,66.66886067390442,267
66,67.67263579368591,267
67,68.67526030540466,267
68,69.67771863937378,265
69,70.68019795417786,264
70,71.68287539482117,265
71,72.68698811531067,266
72,73.6895399093628,265
73,74.69319891929626,263
74,75.69660925865173,264
75,76.69927549362183,265
76,77.70213532447815,262
77,78.70462369918823,263
78,79.70750403404236,265
79,80.70970463752747,261
80,81.71275663375854,261
81,82.7144672870636,264
82,83.71766018867493,263
83,84.72081971168518,263
84,85.72299027442932,263
85,86.72541117668152,263
86,87.72860312461853,261
87,88.73152232170105,259
88,89.73385882377625,259
89,90.73628997802734,261
90,91.73866939544678,260
91,92.74217009544373,257
92,93.74556398391724,260
93,94.74937796592712,259
94,95.75232648849487,259
95,96.75523805618286,262
96,97.75819706916809,260
97,98.76080322265625,260
98,99.76333165168762,259
99,100.76579022407532,260
100,101.76840376853943,263
101,102.7707211971283,261
102,103.77378177642822,259
103,104.77646732330322,258
104,105.77913928031921,259
105,106.78109550476074,260
106,107.7837426662445,260
107,108.78647327423096,257
108,109.78907251358032,258
109,110.79255318641663,259
110,111.79506325721741,261
111,112.79819583892822,261
112,113.79997396469116,259
113,114.80338788032532,259
114,115.8061842918396,261
115,116.80902433395386,260
116,117.81203103065491,260
117,118.81470489501953,260
118,119.81732106208801,259
119,120.82015681266785,261
120,121.82349705696106,259
121,122.82541513442993,260
122,123.82895803451538,260
123,124.83120155334473,259
124,125.83534860610962,260
125,126.83726668357849,259
126,127.83945560455322,258
127,128.84205555915833,259
128,129.84479808807373,259
129,130.8477873802185,260
130,131.85094380378723,259
131,132.8533399105072,259
132,133.85541605949402,259
133,134.85758662223816,258
134,135.86040210723877,257
135,136.86315441131592,259
136,137.86642599105835,258
137,138.86930751800537,259
138,139.8728950023651,259
139,140.8753547668457,257
140,141.8782594203949,256
141,142.88062381744385,259
142,143.88306188583374,257
143,144.88490748405457,257
144,145.88696789741516,259
145,146.8902406692505,259
146,147.89351534843445,257
147,148.89619827270508,258
148,149.89823746681213,258
149,150.9011104106903,258
150,151.90345215797424,258
151,152.90628457069397,259
152,153.9098722934723,258
153,154.91330695152283,259
154,155.91546869277954,258
155,156.91820311546326,257
156,157.92050862312317,258
157,158.9224579334259,258
158,159.9255564212799,258
159,160.9284553527832,258
160,161.9303994178772,257
161,162.93510103225708,256
162,163.93715834617615,256
163,164.93890380859375,256
164,165.94041299819946,256
165,166.94319486618042,257
166,167.94584822654724,256
167,168.9489941596985,256
168,169.95134830474854,257
169,170.95438504219055,257
170,171.95646357536316,256
171,172.95857000350952,256
172,173.96183228492737,256
173,174.96393752098083,257
174,175.9677221775055,255
175,176.97024989128113,255
176,177.97249388694763,256
177,178.97421050071716,257
178,179.97695231437683,256
179,180.9808168411255,257
180,181.98294973373413,255
181,182.98479080200195,255
182,183.98786306381226,254
183,184.99063324928284,255
184,185.99351978302002,255
185,186.9963710308075,254
186,187.9994444847107,255
187,189.00196170806885,256
188,190.00549244880676,255
189,191.00792479515076,255
190,192.00996208190918,254
191,193.0132384300232,254
192,194.01690649986267,255
193,195.01916360855103,255
194,196.02217984199524,256
195,197.0245397090912,255
196,198.02761316299438,254
197,199.0309817790985,254
198,200.03476428985596,254
199,201.03656721115112,254
200,202.0388491153717,255
201,203.04162192344666,256
202,204.0439968109131,253
203,205.04744267463684,254
204,206.04946112632751,254
205,207.05191588401794,253
206,208.0551998615265,253
207,209.05827021598816,254
208,210.06084394454956,252
209,211.06356620788574,251
210,212.06660890579224,251
211,213.070086479187,251
212,214.07263350486755,253
213,215.07531881332397,253
214,216.07827925682068,253
215,217.0804431438446,251
216,218.0824384689331,253
217,219.08530831336975,252
218,220.08789658546448,251
219,221.09020972251892,252
220,222.09265446662903,251
221,223.09430766105652,252
222,224.0970184803009,250
223,225.0996696949005,252
224,226.1031677722931,249
225,227.10908269882202,252
226,228.11299085617065,251
227,229.11579203605652,251
228,230.11897802352905,250
229,231.12163615226746,250
230,232.12485718727112,251
231,233.12799787521362,249
232,234.1302604675293,250
233,235.1325261592865,249
234,236.13498091697693,251
235,237.1376814842224,252
236,238.1402506828308,251
237,239.14320158958435,249
238,240.1461055278778,250
239,241.14872217178345,248
240,242.15162897109985,250
241,243.15434575080872,248
242,244.15757584571838,250
243,245.16077303886414,249
244,246.16408896446228,249
245,247.1670937538147,249
246,248.1697747707367,249
247,249.17336201667786,249
248,250.17555737495422,250
249,251.17798519134521,248
250,252.18029975891113,248
251,253.18278217315674,249
252,254.1864926815033,249
253,255.18837881088257,248
254,256.1910545825958,248
255,257.19369411468506,249
256,258.1964762210846,247
257,259.1993498802185,248
258,260.2011592388153,248
259,261.2037298679352,249
260,262.20566272735596,248
261,263.2076065540314,248
262,264.2116057872772,247
263,265.21413111686707,248
264,266.21727228164673,248
265,267.23523020744324,245
266,268.24551725387573,247
267,269.24885654449463,246
268,270.2523250579834,247
269,271.25494599342346,246
270,272.25705313682556,247
271,273.25995564460754,246
272,274.26201915740967,246
273,275.26446986198425,246
274,276.26734614372253,246
275,277.2697551250458,245
276,278.27170515060425,246
277,279.2742512226105,245
278,280.27630281448364,245
279,281.2790641784668,246
280,282.28435158729553,245
281,283.28748512268066,246
282,284.290150642395,245
283,285.2924976348877,243
284,286.2967984676361,245
285,287.29908752441406,244
286,288.30306696891785,244
287,289.30612111091614,245
288,290.3085970878601,244
289,291.3115563392639,243
290,292.314683675766,244
291,293.31752467155457,244
292,294.3203659057617,244
293,295.32367181777954,243
294,296.3263761997223,244
295,297.3290536403656,244
296,298.33207511901855,243
297,299.3351571559906,245
298,300.33773970603943,245
299,301.34046244621277,242
300,302.34323811531067,244
301,303.34705805778503,244
302,304.34902477264404,242
303,305.3522229194641,245
304,306.3542637825012,245
305,307.35670018196106,242
306,308.3591125011444,244
307,309.363392829895,243
308,310.366516828537,242
309,311.3690733909607,244
310,312.37198781967163,244
311,313.3752064704895,245
312,314.3776865005493,243
313,315.3809781074524,244
314,316.3837184906006,243
315,317.38672494888306,243
316,318.3890006542206,243
317,319.39198112487793,242
318,320.3955500125885,242
319,321.40009474754333,242
320,322.404260635376,242
321,323.40759205818176,241
322,324.41019558906555,242
323,325.41258478164673,242
324,326.4159047603607,242
325,327.4185609817505,241
326,328.42167496681213,242
327,329.4251048564911,241
328,330.4282855987549,241
329,331.4316055774689,241
330,332.4335124492645,241
331,333.43600630760193,239
332,334.4383692741394,240
333,335.44027042388916,240
334,336.4436876773834,239
335,337.44578862190247,238
336,338.44898414611816,240
337,339.45149970054626,240
338,340.4540877342224,240
339,341.45653676986694,240
340,342.45913767814636,239
341,343.46183490753174,241
342,344.4643669128418,239
343,345.46841955184937,238
344,346.4717469215393,241
345,347.4746403694153,237
346,348.47725796699524,238
350,352.48489356040955,238
351,353.48818492889404,240
352,354.490017414093,38
353,355.4933285713196,238
354,356.495730638504,237
355,357.497802734375,238
356,358.50082993507385,239
357,359.5031244754791,238
358,360.5061831474304,236
359,361.50913882255554,239
360,362.5118887424469,237
361,363.5140588283539,237
362,364.5163486003876,237
363,365.5190944671631,238
364,366.52214765548706,236
365,367.52492690086365,236
366,368.52800154685974,236
367,369.5301876068115,236
368,370.53226828575134,235
369,371.5345859527588,237
370,372.5377824306488,237
371,373.5408766269684,236
372,374.5429365634918,235
373,375.5452969074249,237
374,376.54875445365906,236
375,377.5511591434479,237
376,378.55406951904297,234
377,379.55722880363464,235
378,380.55906867980957,235
379,381.56197452545166,234
380,382.5646846294403,235
381,383.5681507587433,235
382,384.5704369544983,234
383,385.57235074043274,234
384,386.5751459598541,234
385,387.578040599823,234
386,388.5802228450775,234
387,389.58335995674133,235
388,390.5868194103241,234
389,391.5898585319519,234
390,392.59298610687256,234
391,393.5955979824066,232
392,394.5983533859253,233
393,395.600647687912,233
394,396.60332012176514,232
395,397.6060109138489,232
396,398.6090452671051,234
397,399.6119849681854,233
398,400.6161596775055,231
399,401.61949276924133,232
400,402.62229108810425,231
401,403.62512135505676,231
402,404.6285059452057,232
403,405.6318974494934,233
404,406.6354773044586,232
405,407.6385314464569,231
406,408.6417372226715,232
407,409.6439712047577,232
408,410.64695024490356,231
409,411.64944314956665,231
410,412.6512324810028,232
411,413.6544144153595,230
412,414.65666913986206,230
413,415.65888118743896,230
414,416.66135597229004,231
415,417.66468834877014,229
416,418.6673746109009,230
417,419.6708402633667,231
418,420.6731357574463,231
419,421.6757411956787,231
420,422.67885160446167,229
421,423.6809952259064,231
422,424.6842415332794,230
423,425.6871917247772,230
424,426.6894688606262,229
425,427.6919994354248,229
426,428.6941249370575,229
427,429.6962888240814,228
428,430.6984124183655,227
429,431.70177364349365,229
430,432.70433831214905,229
431,433.7068314552307,227
432,434.7100064754486,229
433,435.7125360965729,227
434,436.7153010368347,228
435,437.7185604572296,228
436,438.72163462638855,228
437,439.723525762558,228
438,440.72595381736755,227
439,441.72857213020325,227
440,442.7309899330139,226
441,443.7331178188324,227
442,444.735880613327,225
443,445.7386782169342,227
444,446.7418622970581,226
445,447.744873046875,224
446,448.7470111846924,226
447,449.74972915649414,225
448,450.75279664993286,224
449,451.7557544708252,225
450,452.7589762210846,225
451,453.761337518692,224
452,454.7639648914337,224
453,455.7659809589386,224
454,456.7689082622528,224
455,457.7710847854614,223
456,458.77384424209595,221
457,459.7776565551758,223
458,460.7795240879059,225
459,461.78181195259094,220
460,462.78361415863037,222
461,463.78560042381287,223
462,464.7881700992584,222
463,465.7909662723541,223
464,466.79349160194397,223
465,467.7965066432953,222
466,468.7991886138916,222
467,469.8023376464844,221
468,470.80568623542786,222
469,471.8078467845917,223
470,472.81064534187317,221
471,473.8135230541229,220
472,474.8159432411194,220
473,475.8186254501343,221
474,476.8214108943939,219
475,477.8237085342407,221
476,478.82682633399963,220
477,479.8296961784363,220
478,480.8322277069092,219
479,481.83467721939087,219
480,482.8376319408417,221
481,483.8407769203186,218
482,484.8433885574341,221
483,485.84568905830383,218
484,486.84885358810425,220
485,487.85148096084595,218
486,488.85431122779846,220
487,489.8569219112396,219
488,490.85985255241394,220
489,491.8626844882965,218
490,492.865624666214,217
491,493.86827659606934,218
492,494.8708357810974,217
493,495.87340021133423,216
494,496.8760313987732,217
495,497.8793020248413,216
496,498.8822567462921,218
497,499.8856084346771,216
498,500.88924837112427,216
499,501.8918569087982,216
500,502.8949468135834,217
501,503.8980164527893,215
502,504.90078020095825,216
503,505.90353870391846,215
504,506.90586948394775,215
505,507.9088821411133,216
506,508.91216111183167,215
507,509.91438579559326,216
508,510.91722989082336,214
509,511.91938853263855,214
510,512.9215402603149,214
511,513.9243893623352,214
512,514.9276564121246,215
513,515.9308912754059,212
514,516.9339237213135,214
515,517.936815738678,214
516,518.939505815506,216
517,519.9425766468048,213
518,520.9453301429749,214
519,521.9487597942352,212
520,522.9514997005463,214
521,523.9542310237885,210
522,524.9576027393341,213
523,525.9602797031403,214
524,526.962592124939,212
525,527.9648518562317,212
526,528.9672577381134,213
527,529.9705410003662,211
528,530.9732022285461,212
529,531.9764757156372,212
530,532.9796948432922,213
531,533.9819948673248,211
532,534.9856905937195,210
533,535.9888806343079,211
534,536.9920108318329,212
535,537.9950504302979,210
536,538.998060464859,211
537,540.0008330345154,210
538,541.0037908554077,211
539,542.0071568489075,211
540,543.010715007782,208
541,544.0134229660034,210
542,545.0155966281891,211
543,546.0177140235901,211
544,547.0210521221161,209
545,548.0241062641144,211
546,549.0267233848572,211
547,550.0291459560394,210
548,551.0327107906342,210
549,552.0347712039948,211
550,553.0376965999603,209
551,554.0407359600067,207
552,555.0437788963318,210
553,556.0470163822174,210
554,557.0495774745941,209
555,558.0527911186218,208
556,559.0554406642914,210
557,560.0582869052887,209
558,561.0608716011047,209
559,562.0629019737244,207
560,563.0656733512878,209
561,564.0688149929047,209
562,565.0714840888977,209
563,566.0749759674072,210
564,567.0784451961517,208
565,568.0807728767395,208
566,569.0839912891388,208
567,570.0863461494446,208
568,571.0899775028229,207
569,572.0931484699249,207
570,573.0954809188843,207
571,574.0987260341644,207
572,575.1020340919495,205
573,576.1049447059631,207
574,577.1083903312683,206
575,578.1110363006592,206
576,579.1137099266052,205
577,580.1160686016083,204
578,581.1197724342346,207
579,582.122495174408,205
580,583.1257147789001,205
581,584.1279230117798,203
582,585.1306262016296,205
583,586.1329159736633,205
584,587.1359658241272,204
585,588.1392421722412,204
586,589.1418459415436,205
587,590.1445276737213,206
590,593.1512920856476,3
591,594.1543641090393,204
592,595.158319234848,204
593,596.1618428230286,202
594,597.1659376621246,203
595,598.1694130897522,204
596,599.1726937294006,203
597,600.1757528781891,204
598,601.179146528244,203
602,605.1868095397949,205
603,606.1903123855591,201
604,607.1935415267944,203
605,608.196008682251,3
606,609.2022221088409,2
607,610.2050285339355,3
608,611.2159402370453,3
609,612.219310760498,204
610,613.221372127533,203
611,614.2243933677673,202
612,615.226948261261,202
613,616.2296748161316,200
614,617.2327222824097,200
615,618.2358503341675,201
616,619.2386269569397,202
617,620.2413761615753,201
618,621.2441918849945,199
619,622.2464864253998,201
620,623.2509491443634,201
621,624.2537610530853,200
622,625.2563390731812,199
623,626.2595880031586,200
624,627.2666380405426,200
625,628.2709491252899,199
626,629.2741346359253,201
627,630.2761492729187,199
628,631.2782108783722,199
629,632.2806496620178,199
630,633.2843692302704,202
631,634.287341594696,199
632,635.2902851104736,200
633,636.2926695346832,199
635,638.2964434623718,200
636,639.2996532917023,198
637,640.3025014400482,200
638,641.3060894012451,197
639,642.3100793361664,198
640,643.313642501831,199
641,644.3165459632874,200
642,645.3191912174225,199
646,649.3276824951172,197
647,650.3299880027771,199
648,651.3333053588867,197
649,652.3364226818085,97
650,653.3390161991119,99
651,654.341472864151,197
652,655.3435552120209,197
653,656.3466918468475,197
654,657.3495497703552,197
655,658.351457118988,196
656,659.3545210361481,196
657,660.3566753864288,195
658,661.3601531982422,196
659,662.3623893260956,195
660,663.3646514415741,195
661,664.3665881156921,195
662,665.3692479133606,194
663,666.3712258338928,195
664,667.37411236763,195
665,668.3771269321442,195
666,669.3798608779907,195
667,670.3823521137238,194
668,671.3858122825623,193
669,672.3890120983124,194
670,673.3921484947205,192
671,674.3943638801575,195
672,675.3969547748566,194
673,676.3998811244965,194
674,677.4031176567078,193
675,678.4055676460266,194
676,679.4082934856415,192
677,680.4112198352814,193
678,681.4139380455017,191
679,682.4158511161804,193
680,683.4178102016449,192
681,684.4210324287415,191
682,685.424115896225,191
683,686.4271259307861,191
684,687.4298079013824,191
685,688.4328656196594,189
686,689.4351632595062,190
687,690.4387683868408,191
688,691.4409408569336,188
689,692.4442882537842,190
690,693.4481189250946,190
691,694.4505302906036,190
692,695.453647851944,189
693,696.4560689926147,187
694,697.4579739570618,189
695,698.460738658905,189
696,699.4631340503693,186
697,700.4656796455383,188
698,701.4677965641022,188
699,702.4707901477814,187
700,703.4739780426025,188
701,704.4772231578827,187
702,705.4798822402954,187
703,706.4819037914276,186
704,707.4840698242188,187
705,708.4867653846741,185
706,709.49001121521,187
707,710.4932131767273,188
708,711.4962329864502,187
709,712.4994218349457,186
710,713.5020978450775,187
711,714.5040097236633,188
712,715.5064001083374,187
713,716.5093250274658,187
714,717.5123174190521,186
715,718.516973733902,185
716,719.5188543796539,188
717,720.5218210220337,186
718,721.5242078304291,186
719,722.5280735492706,186
720,723.530526638031,185
721,724.5328805446625,186
722,725.5355055332184,184
723,726.5381109714508,185
724,727.5408325195312,186
725,728.5430467128754,185
726,729.5459008216858,183
727,730.548520565033,186
728,731.5507907867432,183
729,732.552255153656,184
730,733.5549461841583,184
731,734.557653427124,184
732,735.5601017475128,183
733,736.5623271465302,183
734,737.564998626709,184
735,738.5682768821716,182
736,739.5715680122375,184
737,740.5741877555847,184
738,741.5765171051025,182
739,742.5781726837158,183
740,743.5804543495178,183
741,744.5833570957184,182
742,745.5864849090576,182
743,746.5887904167175,182
744,747.5906097888947,182
745,748.5945281982422,183
746,749.5974795818329,179
747,750.6001346111298,182
748,751.6028451919556,181
749,752.6051158905029,180
750,753.6080508232117,182
751,754.6113352775574,181
