loop,time,pressure
0,0.10105705261230469,282
2,3.4733834266662598,281
3,4.4750025272369385,282
4,5.476701021194458,280
5,6.478133916854858,281
6,7.479665040969849,284
7,8.481620073318481,281
8,9.48279619216919,282
9,10.48397183418274,281
10,11.48537802696228,280
11,12.4873206615448,281
12,13.488574028015137,281
13,14.490056037902832,282
14,15.491564273834229,283
15,16.49343991279602,281
16,17.495838165283203,282
17,18.497584342956543,282
18,19.499109506607056,280
19,20.501222848892212,282
20,21.5032799243927,281
21,22.504964113235474,282
22,23.50602698326111,281
23,24.512053728103638,283
24,25.513747453689575,281
25,26.515493869781494,281
26,27.517350912094116,281
27,28.518943309783936,283
28,29.52037525177002,280
29,30.52177095413208,281
30,31.523075580596924,283
31,32.52471947669983,281
32,33.52612352371216,283
33,34.52764534950256,279
34,35.529900789260864,282
35,36.53093504905701,281
36,37.532220125198364,280
37,38.53316354751587,281
38,39.53496026992798,280
39,40.53593850135803,281
40,41.53822731971741,281
41,42.53977036476135,280
42,43.54212832450867,282
43,44.54388737678528,279
44,45.54490399360657,282
45,46.546242237091064,280
46,47.54747986793518,280
47,48.54871416091919,279
48,49.550368309020996,281
49,50.55151891708374,279
50,51.553412437438965,280
51,52.55479907989502,280
52,53.55584692955017,280
53,54.5571072101593,280
54,55.55830907821655,280
55,56.55993318557739,278
56,57.56159996986389,281
57,58.56267762184143,278
58,59.56500029563904,281
59,60.56665754318237,278
60,61.569069385528564,280
61,62.57067251205444,279
62,63.5722553730011,280
63,64.57413959503174,278
64,65.5755934715271,281
65,66.57741117477417,278
66,67.57863020896912,278
67,68.58044862747192,277
68,69.58195662498474,281
69,70.58404016494751,277
70,71.58542513847351,278
71,72.58676195144653,277
72,73.58767032623291,277
73,74.58989310264587,280
74,75.59108138084412,277
77,78.59530544281006,278
78,79.59653759002686,78
79,80.59840178489685,277
80,81.59981298446655,278
81,82.60165762901306,277
82,83.60323143005371,280
83,84.6045286655426,279
84,85.60577774047852,277
85,86.60692477226257,278
86,87.60833287239075,276
87,88.61050200462341,281
88,89.61190271377563,278
89,90.61425471305847,278
90,91.61643958091736,278
91,92.61791515350342,277
92,93.61946272850037,279
93,94.62076449394226,277
94,95.62220001220703,278
95,96.62368178367615,278
96,97.62582898139954,278
97,98.62784337997437,277
98,99.62917160987854,276
99,100.63055443763733,280
100,101.63205766677856,277
101,102.63326573371887,277
102,103.6348831653595,278
103,104.6360731124878,278
104,105.6381504535675,279
105,106.63937997817993,277
106,107.64076042175293,277
107,108.64325022697449,278
108,109.6452169418335,277
109,110.64665055274963,277
110,111.64781928062439,276
111,112.65001845359802,276
112,113.65166521072388,275
113,114.65347027778625,276
114,115.65486526489258,276
115,116.65640640258789,275
116,117.65791344642639,277
117,118.65894365310669,275
118,119.66073226928711,274
119,120.66218161582947,278
120,121.66362762451172,274
121,122.66553902626038,276
122,123.66700100898743,276
123,124.66869282722473,274
124,125.67061448097229,276
125,126.6722481250763,275
126,127.67352175712585,276
127,128.6749370098114,275
128,129.6764531135559,274
129,130.67799353599548,274
130,131.68017983436584,274
131,132.68156170845032,275
132,133.68271446228027,274
133,134.68415117263794,275
134,135.68513202667236,274
135,136.6864049434662,273
136,137.68768167495728,276
137,138.6892125606537,274
138,139.69145965576172,273
139,140.6929178237915,274
140,141.69458198547363,275
141,142.6963665485382,276
142,143.69846153259277,274
143,144.70014667510986,276
144,145.70211744308472,275
145,146.7039453983307,274
146,147.70510959625244,276
147,148.70720219612122,274
148,149.7085518836975,274
151,152.71178817749023,275
152,153.71381449699402,272
153,154.7151563167572,273
154,155.71741843223572,274
155,156.71923089027405,273
156,157.72068881988525,275
157,158.72179532051086,273
158,159.72316646575928,274
159,160.72563195228577,275
160,161.7272710800171,273
161,162.72881484031677,275
162,163.72979021072388,274
163,164.73187565803528,274
164,165.73387122154236,274
165,166.7353253364563,274
166,167.73667693138123,274
167,168.7380268573761,276
168,169.73943161964417,275
169,170.74045991897583,276
170,171.74214363098145,277
171,172.74336433410645,276
172,173.74504709243774,275
173,174.7465717792511,277
174,175.74816966056824,278
175,176.7497341632843,276
176,177.7512969970703,276
177,178.75288772583008,275
178,179.75402450561523,275
179,180.75596404075623,277
180,181.757807970047,276
181,182.7593433856964,276
182,183.76136422157288,276
183,184.7626302242279,275
184,185.76409339904785,275
185,186.76565408706665,275
186,187.76761841773987,275
187,188.76980018615723,275
188,189.77257537841797,274
189,190.7740957736969,274
190,191.77607703208923,276
191,192.7771475315094,276
192,193.77842807769775,276
193,194.77982020378113,276
194,195.78076195716858,276
195,196.78252744674683,275
196,197.7839834690094,275
197,198.78532552719116,276
198,199.7868537902832,274
199,200.7891309261322,275
200,201.79054379463196,276
201,202.79179120063782,276
202,203.79326725006104,277
203,204.79505562782288,275
204,205.7970519065857,275
205,206.79904127120972,277
206,207.80114579200745,275
207,208.8025186061859,275
208,209.80442190170288,276
209,210.80635285377502,276
210,211.80847144126892,277
211,212.81069087982178,274
212,213.8119719028473,275
213,214.81333827972412,276
214,215.81438207626343,276
215,216.8177649974823,275
216,217.81981825828552,275
217,218.82123017311096,275
218,219.82266283035278,275
219,220.82434821128845,276
220,221.82583594322205,277
221,222.827130317688,276
222,223.8293173313141,275
223,224.83073925971985,275
224,225.83234190940857,276
227,228.83723974227905,273
228,229.83914947509766,74
229,230.84035468101501,77
230,231.84143614768982,273
231,232.842627286911,275
232,233.84441328048706,274
233,234.84598112106323,276
234,235.84771943092346,275
235,236.85005640983582,277
236,237.8514382839203,275
237,238.85314321517944,277
238,239.8548173904419,273
239,240.85620999336243,275
240,241.8579490184784,276
241,242.85961151123047,274
242,243.8608627319336,277
243,244.8621118068695,274
244,245.86314582824707,272
245,246.8647289276123,275
246,247.86566948890686,274
247,248.86727380752563,273
248,249.8688805103302,276
249,250.87084293365479,274
250,251.87227392196655,273
251,252.87378525733948,272
252,253.87503266334534,272
253,254.8770706653595,273
254,255.87861394882202,272
255,256.88072991371155,272
256,257.8822555541992,273
257,258.8841290473938,272
258,259.88608169555664,273
259,260.8875436782837,272
260,261.8891804218292,272
261,262.8906342983246,273
262,263.8920569419861,273
263,264.89391350746155,272
264,265.895236492157,273
265,266.8962051868439,271
266,267.89737248420715,273
267,268.89873600006104,273
268,269.90032505989075,271
269,270.90203833580017,273
270,271.90361166000366,274
271,272.9050295352936,271
272,273.9060266017914,272
273,274.9076657295227,271
274,275.9091007709503,272
275,276.9106059074402,272
276,277.91149282455444,272
277,278.91259837150574,271
278,279.9139988422394,271
279,280.91505122184753,272
280,281.9165074825287,273
281,282.918315410614,271
282,283.9192707538605,271
283,284.9206659793854,271
284,285.9220530986786,272
285,286.92302227020264,270
286,287.9240388870239,272
287,288.9323592185974,270
288,289.93355202674866,272
289,290.9354319572449,271
290,291.9368894100189,270
291,292.93881273269653,272
292,293.9407579898834,270
293,294.94211173057556,269
294,295.9433853626251,269
295,296.945196390152,270
296,297.94636130332947,270
297,298.9483926296234,270
298,299.9501042366028,268
299,300.9529867172241,270
300,301.95496225357056,271
303,304.9580428600311,71
304,305.95985293388367,270
305,306.9620144367218,272
306,307.9634675979614,269
307,308.9652326107025,268
308,309.96669483184814,271
309,310.9683084487915,270
310,311.96979308128357,271
311,312.9721462726593,270
312,313.9741098880768,269
313,314.97660422325134,271
314,315.97838401794434,269
315,316.9803202152252,270
316,317.98236083984375,270
317,318.98386788368225,269
318,319.9856581687927,267
319,320.98721861839294,272
320,321.9890823364258,268
321,322.99119234085083,270
322,323.992547750473,270
323,324.9937798976898,268
324,325.9953396320343,270
325,326.9963483810425,270
326,327.9980309009552,268
327,328.9995102882385,271
328,330.00093698501587,269
329,331.00206756591797,270
330,332.0032391548157,271
331,333.0043594837189,270
332,334.0058596134186,270
333,335.0074851512909,270
334,336.00976371765137,269
335,337.0111689567566,271
336,338.0122616291046,271
337,339.01424956321716,271
338,340.01513147354126,272
339,341.01769828796387,270
340,342.0197129249573,269
341,343.0216648578644,271
342,344.02311396598816,270
343,345.02467942237854,269
344,346.0258173942566,274
345,347.0278148651123,272
346,348.0297305583954,271
347,349.0313539505005,272
348,350.0334138870239,269
349,351.03528904914856,271
350,352.0365831851959,270
351,353.0378329753876,272
352,354.0397672653198,271
353,355.0408368110657,273
354,356.0424270629883,272
355,357.04426407814026,272
356,358.04570746421814,270
357,359.04775071144104,270
358,360.04916977882385,272
359,361.05097699165344,272
360,362.0524945259094,272
361,363.0550346374512,271
362,364.0568232536316,271
363,365.05819749832153,270
364,366.0594620704651,273
365,367.06086015701294,270
366,368.06275177001953,270
367,369.06431555747986,272
368,370.06624722480774,273
369,371.0674657821655,271
370,372.0696964263916,270
371,373.0717852115631,269
372,374.0731449127197,270
373,375.074511051178,274
374,376.0765175819397,271
375,377.0784981250763,272
376,378.0808026790619,273
377,379.08210372924805,269
380,382.08633303642273,70
381,383.0881607532501,70
382,384.0899987220764,270
383,385.09121680259705,269
384,386.09336280822754,269
385,387.0947539806366,270
386,388.09703516960144,269
387,389.0984799861908,269
388,390.09984946250916,271
389,391.1007568836212,271
390,392.1029443740845,269
391,393.1049737930298,269
392,394.10687947273254,268
393,395.10903787612915,270
394,396.11209177970886,269
395,397.113312959671,270
396,398.11535263061523,271
397,399.1165599822998,269
398,400.1184802055359,268
399,401.1204960346222,270
400,402.1220064163208,271
401,403.1234257221222,270
402,404.12516808509827,269
403,405.12723302841187,269
404,406.1285583972931,270
405,407.13002347946167,271
406,408.13130927085876,269
407,409.13244557380676,267
408,410.13391041755676,270
409,411.1351764202118,270
410,412.1372661590576,269
411,413.1395163536072,269
412,414.140830039978,268
413,415.14233016967773,267
414,416.14395546913147,270
415,417.1454875469208,268
416,418.14819502830505,268
417,419.1495940685272,270
418,420.1517376899719,269
419,421.15309476852417,269
420,422.15475845336914,269
421,423.1558690071106,269
422,424.1572320461273,270
423,425.15839171409607,271
424,426.15995693206787,269
425,427.16174268722534,269
426,428.1648144721985,270
427,429.16639280319214,269
428,430.1691873073578,270
429,431.17073702812195,269
430,432.1724374294281,268
431,433.17393493652344,269
432,434.1755895614624,274
433,435.1779704093933,269
434,436.1798965930939,269
435,437.18246936798096,274
436,438.1839678287506,270
437,439.1859164237976,270
438,440.1870183944702,270
439,441.1884436607361,270
440,442.1903626918793,270
441,443.19188952445984,271
442,444.19363236427307,269
443,445.1954324245453,269
444,446.1976318359375,271
445,447.19932103157043,269
446,448.20123291015625,268
447,449.20266699790955,271
448,450.2045934200287,271
449,451.20613050460815,268
450,452.20849990844727,271
451,453.2102153301239,271
452,454.2119438648224,271
453,455.21314573287964,269
454,456.21479392051697,271
455,457.2168917655945,270
456,458.21902537345886,270
457,459.22130250930786,270
458,460.22241592407227,270
459,461.2242043018341,271
462,464.22807097435,270
463,465.22954511642456,270
464,466.2308301925659,270
465,467.23270559310913,268
466,468.23469972610474,270
467,469.23603773117065,270
468,470.2377393245697,269
469,471.238728761673,270
470,472.24020314216614,269
471,473.2418088912964,270
472,474.2437000274658,271
473,475.2451972961426,269
474,476.24686455726624,269
475,477.2482874393463,271
476,478.2504668235779,267
477,479.25194573402405,267
478,480.25397300720215,271
479,481.2551784515381,269
480,482.2570548057556,268
481,483.2583210468292,269
482,484.25961232185364,269
483,485.2611541748047,267
484,486.26263904571533,270
485,487.26351833343506,269
486,488.2645695209503,267
487,489.26614141464233,267
488,490.26816487312317,268
489,491.27039408683777,267
490,492.27160716056824,268
491,493.2732684612274,270
492,494.2749967575073,268
493,495.27637934684753,268
494,496.27812361717224,267
495,497.2793357372284,266
496,498.2808997631073,267
497,499.28311347961426,270
498,500.2846953868866,267
499,501.28642654418945,267
500,502.28852367401123,269
501,503.29075813293457,267
502,504.2924370765686,266
503,505.29438614845276,268
504,506.29604387283325,267
505,507.297735452652,266
506,508.2990074157715,267
507,509.3004627227783,266
508,510.3021819591522,266
509,511.3039126396179,269
510,512.3052492141724,266
511,513.3067481517792,265
512,514.3086383342743,267
513,515.3098573684692,267
514,516.3112163543701,265
515,517.3123319149017,265
516,518.3137693405151,267
517,519.3155851364136,265
518,520.3169631958008,266
519,521.3191905021667,266
520,522.3213548660278,264
521,523.3227438926697,266
522,524.3243982791901,265
523,525.3266887664795,265
524,526.328054189682,265
525,527.3298563957214,266
526,528.3318367004395,264
527,529.3337941169739,266
528,530.3352315425873,263
529,531.3365607261658,265
530,532.3380768299103,265
531,533.3393867015839,265
532,534.3411722183228,264
533,535.3425681591034,264
534,536.3438403606415,265
535,537.345351934433,5
538,540.3496310710907,264
539,541.3505098819733,264
540,542.351902961731,265
541,543.3538632392883,263
542,544.3551354408264,263
543,545.3560743331909,266
544,546.3574178218842,264
545,547.3587870597839,266
546,548.3604440689087,263
547,549.3622343540192,262
548,550.3637781143188,265
549,551.3656053543091,262
550,552.3672075271606,266
551,553.3685364723206,262
552,554.3706285953522,263
553,555.372318983078,264
554,556.3738243579865,263
555,557.3756411075592,263
556,558.3775627613068,262
557,559.3800077438354,262
558,560.3812000751495,263
559,561.3829710483551,262
560,562.3839614391327,265
561,563.3852617740631,262
562,564.3867311477661,263
563,565.3882100582123,262
564,566.3898341655731,263
565,567.3913946151733,262
566,568.3930881023407,262
567,569.3947198390961,263
568,570.3965132236481,263
569,571.3981599807739,261
570,572.3994293212891,264
571,573.401353597641,261
572,574.4035894870758,263
573,575.405113697052,262
574,576.4070591926575,261
575,577.4089453220367,260
576,578.4103422164917,260
577,579.4122185707092,262
578,580.4142339229584,261
579,581.4154958724976,262
580,582.4166986942291,259
581,583.4187436103821,266
582,584.4203791618347,264
583,585.4220268726349,267
584,586.4237763881683,265
585,587.4256341457367,267
586,588.4266953468323,264
587,589.4283490180969,266
588,590.429655790329,266
589,591.4312562942505,266
590,592.4333057403564,263
591,593.4344789981842,265
592,594.4363589286804,265
593,595.4374823570251,266
594,596.4388089179993,264
595,597.4401845932007,264
596,598.4413907527924,265
597,599.4425332546234,266
598,600.4437167644501,264
599,601.445188999176,266
600,602.4460914134979,266
601,603.4473650455475,266
602,604.4489071369171,265
603,605.4502513408661,265
604,606.451892375946,263
605,607.453572511673,264
606,608.4572787284851,265
609,611.4612839221954,264
610,612.4626286029816,66
611,613.4640302658081,264
612,614.465882062912,264
613,615.4670672416687,266
614,616.4684076309204,266
615,617.4706494808197,265
616,618.4720227718353,265
617,619.4747359752655,264
618,620.4761242866516,265
619,621.4773886203766,266
620,622.478821516037,267
621,623.4806776046753,264
622,624.4819982051849,266
623,625.4837493896484,263
624,626.4857530593872,264
625,627.4872598648071,266
626,628.488851070404,265
627,629.49147772789,264
628,630.4928572177887,266
629,631.494398355484,264
630,632.4958181381226,264
631,633.4973797798157,263
632,634.4990508556366,263
633,635.5000910758972,265
634,636.5012810230255,264
635,637.5025658607483,263
636,638.5040428638458,264
637,639.5053672790527,264
638,640.5066387653351,265
639,641.5082716941833,265
640,642.5097653865814,264
641,643.5120780467987,264
642,644.5138988494873,264
643,645.5157294273376,263
644,646.5172255039215,264
645,647.5185990333557,263
646,648.5200691223145,263
647,649.5223906040192,264
648,650.5240044593811,265
649,651.525465965271,262
650,652.5276474952698,262
651,653.5294299125671,262
652,654.5314514636993,264
653,655.5327835083008,264
654,656.5356550216675,263
655,657.5368576049805,263
656,658.5382981300354,262
657,659.540244102478,264
658,660.5416338443756,264
659,661.5429384708405,263
660,662.544234752655,261
661,663.5453960895538,264
662,664.5466735363007,263
663,665.5486476421356,264
664,666.5508050918579,262
665,667.5522706508636,262
666,668.5538947582245,264
667,669.5547058582306,262
668,670.5560486316681,262
669,671.5584578514099,262
670,672.5602407455444,261
671,673.5614650249481,262
672,674.5633237361908,262
673,675.5645053386688,261
674,676.5660450458527,262
675,677.5675036907196,262
676,678.5700225830078,263
677,679.5713129043579,260
678,680.5737941265106,259
679,681.5753681659698,264
680,682.5775158405304,259
681,683.5789816379547,262
682,684.5807640552521,261
683,685.5841290950775,259
686,688.5887162685394,261
687,689.590705871582,61
688,690.5925216674805,260
689,691.5938541889191,261
690,692.5957670211792,261
691,693.597461938858,259
692,694.5989472866058,259
693,695.6011788845062,259
694,696.6028707027435,260
695,697.6040847301483,259
696,698.606705904007,259
697,699.6083490848541,260
698,700.6094763278961,258
699,701.6110601425171,260
700,702.6124060153961,260
701,703.6137266159058,259
702,704.6148593425751,261
703,705.6161103248596,259
704,706.6172964572906,259
705,707.6181771755219,260
706,708.6195766925812,260
707,709.6206259727478,260
708,710.6218988895416,258
709,711.6229276657104,260
710,712.6246771812439,262
711,713.626238822937,261
712,714.627626657486,260
713,715.6288278102875,260
714,716.6301941871643,257
715,717.6319048404694,260
716,718.6337838172913,261
717,719.6357772350311,260
718,720.6376354694366,261
719,721.6388876438141,260
720,722.6410715579987,261
721,723.6430149078369,261
722,724.6442923545837,260
723,725.646190404892,261
724,726.6476373672485,260
725,727.6487720012665,261
726,728.6504917144775,263
727,729.6519894599915,259
728,730.6537544727325,259
729,731.6558594703674,262
730,732.6573204994202,261
731,733.6586651802063,260
732,734.6604015827179,260
733,735.6619296073914,260
734,736.6638221740723,262
735,737.6654272079468,260
736,738.6668031215668,259
737,739.6685218811035,261
738,740.6707890033722,261
739,741.6723804473877,259
740,742.6742160320282,263
741,743.6754188537598,261
742,744.677426815033,261
743,745.6789016723633,260
744,746.6800076961517,262
745,747.6825151443481,261
746,748.6836943626404,260
747,749.6857714653015,262
748,750.6873755455017,262
749,751.6895780563354,262
750,752.6915831565857,262
751,753.6936373710632,261
752,754.6951313018799,261
753,755.6963484287262,262
754,756.6974408626556,261
755,757.6997802257538,263
